loss,accuracy,val_loss,val_accuracy,lr
1.6733042001724243,0.14800000190734863,1.581205129623413,0.10711111128330231,0.001
1.5951454639434814,0.23999999463558197,1.5304110050201416,0.2611111104488373,0.001
1.565028190612793,0.27399998903274536,1.482970952987671,0.5075555443763733,0.001
1.5295343399047852,0.2939999997615814,1.4365630149841309,0.7131111025810242,0.001
1.46909499168396,0.3720000088214874,1.3919737339019775,0.7988888621330261,0.001
1.43354070186615,0.39800000190734863,1.348949670791626,0.8302222490310669,0.001
1.373331069946289,0.4659999907016754,1.3088141679763794,0.8484444618225098,0.001
1.343595027923584,0.5180000066757202,1.2697093486785889,0.855555534362793,0.001
1.341135859489441,0.47600001096725464,1.2323462963104248,0.8586666584014893,0.001
1.2669998407363892,0.5640000104904175,1.196578025817871,0.8646666407585144,0.001
1.2599265575408936,0.5680000185966492,1.1623520851135254,0.8691111207008362,0.001
1.2242926359176636,0.6119999885559082,1.1293648481369019,0.8733333349227905,0.001
1.1935327053070068,0.6380000114440918,1.0970622301101685,0.875333309173584,0.001
1.1595749855041504,0.6380000114440918,1.0659021139144897,0.8782222270965576,0.001
1.132749080657959,0.6800000071525574,1.0364084243774414,0.8808888792991638,0.001
1.1141924858093262,0.7080000042915344,1.0080749988555908,0.882444441318512,0.001
1.0862221717834473,0.7160000205039978,0.9813125133514404,0.8844444155693054,0.001
1.0605088472366333,0.7020000219345093,0.9551386833190918,0.8866666555404663,0.001
1.0201356410980225,0.7200000286102295,0.9298864006996155,0.8880000114440918,0.001
0.9912269115447998,0.7200000286102295,0.9054350256919861,0.8893333077430725,0.001
1.0016872882843018,0.7260000109672546,0.8822464942932129,0.8899999856948853,0.001
0.9533224105834961,0.7419999837875366,0.8603943586349487,0.890666663646698,0.001
0.9525479078292847,0.7459999918937683,0.8388602137565613,0.891777753829956,0.001
0.926390528678894,0.7260000109672546,0.8186936378479004,0.8928889036178589,0.001
0.9031493067741394,0.7639999985694885,0.798566997051239,0.8939999938011169,0.001
0.8698129653930664,0.7739999890327454,0.779863178730011,0.894444465637207,0.001
0.8805396556854248,0.7480000257492065,0.7615255117416382,0.8948888778686523,0.001
0.8574429750442505,0.765999972820282,0.7442488670349121,0.8957777619361877,0.001
0.827750027179718,0.7799999713897705,0.7278560996055603,0.8966666460037231,0.001
0.8129949569702148,0.7820000052452087,0.7118188738822937,0.897777795791626,0.001
0.7902700901031494,0.8080000281333923,0.6965117454528809,0.8982222080230713,0.001
0.7813652157783508,0.8019999861717224,0.681658923625946,0.8995555639266968,0.001
0.785515546798706,0.8019999861717224,0.6675555109977722,0.9002222418785095,0.001
0.749651312828064,0.8159999847412109,0.6542925834655762,0.9011111259460449,0.001
0.7322195768356323,0.8100000023841858,0.6413241028785706,0.9031111001968384,0.001
0.7257131338119507,0.8159999847412109,0.6292385458946228,0.9037777781486511,0.001
0.7354629039764404,0.8119999766349792,0.6175158023834229,0.9039999842643738,0.001
0.7073925137519836,0.8360000252723694,0.6061923503875732,0.9039999842643738,0.001
0.6873090863227844,0.8399999737739563,0.5952587723731995,0.9046666622161865,0.001
0.685380756855011,0.8159999847412109,0.5847095251083374,0.9055555462837219,0.001
0.6486260294914246,0.8479999899864197,0.574451744556427,0.9057777523994446,0.001
0.6584082245826721,0.8420000076293945,0.5643317103385925,0.9064444303512573,0.001
0.6636871695518494,0.8640000224113464,0.5545455813407898,0.9066666960716248,0.001
0.6387037038803101,0.8539999723434448,0.5453484058380127,0.9071111083030701,0.001
0.6237801313400269,0.8479999899864197,0.5365282893180847,0.9075555801391602,0.001
0.6179205179214478,0.8679999709129333,0.5279680490493774,0.9082221984863281,0.001
0.6236298084259033,0.8560000061988831,0.5197739005088806,0.9084444642066956,0.001
0.6009606122970581,0.8700000047683716,0.5119816064834595,0.9088888764381409,0.001
0.6136062741279602,0.8640000224113464,0.5045927166938782,0.909333348274231,0.001
0.582268476486206,0.8799999952316284,0.4973902404308319,0.9097777605056763,0.001
0.5715147256851196,0.8759999871253967,0.49050503969192505,0.9100000262260437,0.001
0.5614349246025085,0.8960000276565552,0.4836675226688385,0.9106666445732117,0.001
0.5593984127044678,0.8820000290870667,0.477258563041687,0.9108889102935791,0.001
0.5523849129676819,0.8859999775886536,0.4709598422050476,0.9120000004768372,0.001
0.5485705733299255,0.8799999952316284,0.4650818705558777,0.9124444723129272,0.001
0.5399168729782104,0.8939999938011169,0.4592494070529938,0.9131110906600952,0.001
0.5302621722221375,0.878000020980835,0.45376914739608765,0.9135555624961853,0.001
0.518989622592926,0.8960000276565552,0.44840890169143677,0.9135555624961853,0.001
0.5085482001304626,0.8920000195503235,0.4433777332305908,0.9139999747276306,0.001
0.5165666341781616,0.8960000276565552,0.4384618103504181,0.9144444465637207,0.001
0.5119351148605347,0.8960000276565552,0.4337821900844574,0.9151111245155334,0.001
0.5036858916282654,0.8980000019073486,0.4289929270744324,0.9153333306312561,0.001
0.48724833130836487,0.9020000100135803,0.42458054423332214,0.9157778024673462,0.001
0.4976377487182617,0.8939999938011169,0.4201873540878296,0.9157778024673462,0.001
0.4957228899002075,0.9020000100135803,0.41605323553085327,0.9160000085830688,0.001
0.4739820957183838,0.906000018119812,0.4121634364128113,0.9160000085830688,0.001
0.4756859838962555,0.8960000276565552,0.40828338265419006,0.9160000085830688,0.001
0.48060011863708496,0.9120000004768372,0.4046113193035126,0.9160000085830688,0.001
0.4725298583507538,0.9039999842643738,0.4010380804538727,0.9162222146987915,0.001
0.46366599202156067,0.9039999842643738,0.39757049083709717,0.9162222146987915,0.001
0.4745727777481079,0.8880000114440918,0.39430147409439087,0.9164444208145142,0.001
0.45702919363975525,0.9120000004768372,0.39102956652641296,0.9164444208145142,0.001
0.4451051950454712,0.9039999842643738,0.38788238167762756,0.9164444208145142,0.001
0.4414671063423157,0.9079999923706055,0.38488414883613586,0.9166666865348816,0.001
0.4354272484779358,0.9200000166893005,0.38215887546539307,0.9166666865348816,0.001
0.42634251713752747,0.9200000166893005,0.37940073013305664,0.9166666865348816,0.001
0.43671751022338867,0.9100000262260437,0.37655019760131836,0.9168888926506042,0.001
0.4311799108982086,0.9139999747276306,0.3739798665046692,0.9168888926506042,0.001
0.42219534516334534,0.9079999923706055,0.3714887499809265,0.9171110987663269,0.001
0.4447825253009796,0.9039999842643738,0.3691112995147705,0.9173333048820496,0.001
0.4212818443775177,0.9179999828338623,0.36692413687705994,0.9173333048820496,0.001
0.4258604645729065,0.9139999747276306,0.3647335469722748,0.9173333048820496,0.001
0.4193187355995178,0.9100000262260437,0.36255908012390137,0.9173333048820496,0.001
0.42841026186943054,0.9079999923706055,0.3605242073535919,0.917555570602417,0.001
0.40953630208969116,0.9160000085830688,0.3585413694381714,0.9173333048820496,0.001
0.4081965982913971,0.9160000085830688,0.35675016045570374,0.917555570602417,0.001
0.40694937109947205,0.9120000004768372,0.3547820746898651,0.9173333048820496,0.001
0.39415350556373596,0.9139999747276306,0.3529706597328186,0.9171110987663269,0.001
0.40295669436454773,0.9039999842643738,0.35124149918556213,0.9171110987663269,0.001
0.4008027911186218,0.9139999747276306,0.34960049390792847,0.9173333048820496,0.001
0.39496201276779175,0.9160000085830688,0.3479364514350891,0.9173333048820496,0.001
0.4091470539569855,0.9139999747276306,0.34631597995758057,0.9173333048820496,0.001
0.3824796676635742,0.9200000166893005,0.3447008430957794,0.917555570602417,0.001
0.3949131965637207,0.9139999747276306,0.34317925572395325,0.9177777767181396,0.001
0.39008548855781555,0.9200000166893005,0.3416837751865387,0.9177777767181396,0.001
0.387626588344574,0.9160000085830688,0.3401608169078827,0.9179999828338623,0.001
0.38424235582351685,0.9259999990463257,0.33869069814682007,0.9179999828338623,0.001
0.3809833228588104,0.9200000166893005,0.33735552430152893,0.9179999828338623,0.001
0.3880144953727722,0.9200000166893005,0.3360198438167572,0.9179999828338623,0.001
0.3824969232082367,0.9179999828338623,0.33472931385040283,0.9179999828338623,0.001
0.36993929743766785,0.9139999747276306,0.3335566818714142,0.9179999828338623,0.001
0.37263694405555725,0.9160000085830688,0.3323684632778168,0.9179999828338623,0.001
0.37610357999801636,0.9139999747276306,0.33124762773513794,0.9179999828338623,0.001
0.380021870136261,0.9259999990463257,0.3300893306732178,0.9179999828338623,0.001
0.3659340739250183,0.9200000166893005,0.3290795385837555,0.9179999828338623,0.001
0.3534244894981384,0.921999990940094,0.32810986042022705,0.9182222485542297,0.001
0.3652847409248352,0.9200000166893005,0.32723015546798706,0.9182222485542297,0.001
0.36332041025161743,0.9259999990463257,0.3262927830219269,0.9184444546699524,0.001
0.3594724237918854,0.921999990940094,0.3253977298736572,0.9184444546699524,0.001
0.3565787374973297,0.921999990940094,0.3245234787464142,0.9184444546699524,0.001
0.3608658015727997,0.921999990940094,0.3236123323440552,0.9184444546699524,0.001
0.3678670823574066,0.9179999828338623,0.3227785527706146,0.9184444546699524,0.001
0.3614884316921234,0.9139999747276306,0.3218551576137543,0.9184444546699524,0.001
0.35816526412963867,0.9240000247955322,0.3210112452507019,0.9184444546699524,0.001
0.3719574809074402,0.9160000085830688,0.3201460838317871,0.9184444546699524,0.001
0.35139796137809753,0.921999990940094,0.3193775713443756,0.9184444546699524,0.001
0.3644369840621948,0.9240000247955322,0.31855306029319763,0.9184444546699524,0.001
0.3654322624206543,0.9179999828338623,0.31772246956825256,0.9184444546699524,0.001
0.3398464620113373,0.9259999990463257,0.3170257806777954,0.9184444546699524,0.001
0.3493785560131073,0.921999990940094,0.316259503364563,0.9184444546699524,0.001
0.3478153944015503,0.9200000166893005,0.31547799706459045,0.9184444546699524,0.001
0.35697948932647705,0.9139999747276306,0.31475281715393066,0.9184444546699524,0.001
0.34030893445014954,0.9160000085830688,0.3140195608139038,0.9184444546699524,0.001
0.3355270028114319,0.9300000071525574,0.31341153383255005,0.9184444546699524,0.001
0.3526424467563629,0.9259999990463257,0.3127758204936981,0.9184444546699524,0.001
0.35100945830345154,0.9200000166893005,0.31207478046417236,0.9184444546699524,0.001
0.34662821888923645,0.9200000166893005,0.3114687502384186,0.918666660785675,0.001
0.3424273729324341,0.921999990940094,0.310850590467453,0.918666660785675,0.001
0.3395383954048157,0.9240000247955322,0.3102642297744751,0.918666660785675,0.001
0.33711546659469604,0.9240000247955322,0.3096853196620941,0.918666660785675,0.001
0.3389543294906616,0.9200000166893005,0.3090652525424957,0.9188888669013977,0.001
0.33787667751312256,0.9259999990463257,0.30846017599105835,0.9188888669013977,0.001
0.3287251591682434,0.921999990940094,0.30786851048469543,0.9188888669013977,0.001
0.35616764426231384,0.9139999747276306,0.3073129653930664,0.918666660785675,0.001
0.32866573333740234,0.9200000166893005,0.30677977204322815,0.918666660785675,0.001
0.3322487771511078,0.9259999990463257,0.30623167753219604,0.918666660785675,0.001
0.32661572098731995,0.9259999990463257,0.30570051074028015,0.918666660785675,0.001
0.3339128792285919,0.9200000166893005,0.3051888346672058,0.918666660785675,0.001
0.32448285818099976,0.921999990940094,0.3047144412994385,0.918666660785675,0.001
0.31964725255966187,0.9259999990463257,0.30415281653404236,0.918666660785675,0.001
0.33184462785720825,0.9240000247955322,0.3036801815032959,0.918666660785675,0.001
0.3298121988773346,0.9139999747276306,0.3031194806098938,0.918666660785675,0.001
0.3233206570148468,0.921999990940094,0.30261698365211487,0.918666660785675,0.001
0.34187936782836914,0.9160000085830688,0.30209800601005554,0.918666660785675,0.001
0.3381388187408447,0.9179999828338623,0.30160754919052124,0.918666660785675,0.001
0.327362596988678,0.921999990940094,0.3012079894542694,0.9188888669013977,0.001
0.3293873965740204,0.921999990940094,0.30065828561782837,0.9191111326217651,0.001
0.32118573784828186,0.9200000166893005,0.30019479990005493,0.9188888669013977,0.001
0.324882835149765,0.9179999828338623,0.29963260889053345,0.9188888669013977,0.001
0.32728111743927,0.921999990940094,0.2992154359817505,0.9188888669013977,0.001
0.32771795988082886,0.9259999990463257,0.2987016439437866,0.9188888669013977,0.001
0.31803613901138306,0.921999990940094,0.29825109243392944,0.9188888669013977,0.001
0.3209493160247803,0.9240000247955322,0.2977832555770874,0.9188888669013977,0.001
0.3293915092945099,0.9259999990463257,0.29737621545791626,0.9188888669013977,0.001
0.32307031750679016,0.9200000166893005,0.2969469130039215,0.9188888669013977,0.001
0.3232555091381073,0.9240000247955322,0.2966148555278778,0.9188888669013977,0.001
0.33013200759887695,0.921999990940094,0.2962317168712616,0.9188888669013977,0.001
0.32072678208351135,0.9240000247955322,0.2958185076713562,0.9191111326217651,0.001
0.31450578570365906,0.9240000247955322,0.29538264870643616,0.9191111326217651,0.001
0.33266040682792664,0.9259999990463257,0.2949114143848419,0.9191111326217651,0.001
0.3172247111797333,0.9259999990463257,0.29442110657691956,0.9191111326217651,0.001
0.30948612093925476,0.9240000247955322,0.294038861989975,0.9191111326217651,0.001
0.3223494291305542,0.9279999732971191,0.29358235001564026,0.9191111326217651,0.001
0.31888917088508606,0.921999990940094,0.29317668080329895,0.9191111326217651,0.001
0.31495407223701477,0.9240000247955322,0.292747437953949,0.9191111326217651,0.001
0.3065505921840668,0.9259999990463257,0.2924225926399231,0.9191111326217651,0.001
0.3109612464904785,0.9240000247955322,0.2920530438423157,0.9193333387374878,0.001
0.3137895166873932,0.9279999732971191,0.29168078303337097,0.9193333387374878,0.001
0.30414798855781555,0.9259999990463257,0.2912887930870056,0.9193333387374878,0.001
0.30849072337150574,0.9259999990463257,0.29091334342956543,0.9193333387374878,0.001
0.31591150164604187,0.921999990940094,0.29048919677734375,0.9193333387374878,0.001
0.31720277667045593,0.9160000085830688,0.2900497019290924,0.9191111326217651,0.001
0.30988386273384094,0.9259999990463257,0.2896990478038788,0.9193333387374878,0.001
0.31055116653442383,0.921999990940094,0.289375364780426,0.9193333387374878,0.001
0.3170456290245056,0.9240000247955322,0.289106547832489,0.9193333387374878,0.001
0.30143871903419495,0.9240000247955322,0.288753479719162,0.9195555448532104,0.001
0.31803202629089355,0.9279999732971191,0.2883846163749695,0.9195555448532104,0.001
0.3049146831035614,0.9279999732971191,0.288025826215744,0.9195555448532104,0.001
0.31729355454444885,0.9300000071525574,0.28768905997276306,0.9195555448532104,0.001
0.3083595633506775,0.9259999990463257,0.2873117923736572,0.9195555448532104,0.001
0.3078463673591614,0.9259999990463257,0.28692564368247986,0.9195555448532104,0.001
0.3194828927516937,0.9179999828338623,0.28659555315971375,0.9195555448532104,0.001
0.3132215738296509,0.9259999990463257,0.2862103283405304,0.9193333387374878,0.001
0.3085279166698456,0.9279999732971191,0.28593936562538147,0.9195555448532104,0.001
0.31092026829719543,0.9240000247955322,0.28567251563072205,0.9195555448532104,0.001
0.2950477600097656,0.9279999732971191,0.2853451073169708,0.9195555448532104,0.001
0.2877057194709778,0.9279999732971191,0.2850009500980377,0.9195555448532104,0.001
0.3013145327568054,0.9300000071525574,0.2846825122833252,0.9193333387374878,0.001
0.3137522041797638,0.9259999990463257,0.28434404730796814,0.9193333387374878,0.001
0.3053252398967743,0.921999990940094,0.2839638590812683,0.9193333387374878,0.001
0.3072474002838135,0.9240000247955322,0.28365206718444824,0.9193333387374878,0.001
0.29552456736564636,0.9319999814033508,0.28343045711517334,0.9193333387374878,0.001
0.3033287227153778,0.9279999732971191,0.28311973810195923,0.9193333387374878,0.001
0.29341933131217957,0.9200000166893005,0.28282037377357483,0.9193333387374878,0.001
0.29676973819732666,0.921999990940094,0.2826322615146637,0.9195555448532104,0.001
0.30082187056541443,0.9259999990463257,0.28237640857696533,0.9195555448532104,0.001
0.2833295464515686,0.921999990940094,0.2821252644062042,0.9195555448532104,0.001
0.29870787262916565,0.9200000166893005,0.28179726004600525,0.9195555448532104,0.001
0.30965203046798706,0.9259999990463257,0.2815520167350769,0.9197777509689331,0.001
0.29857560992240906,0.9259999990463257,0.28118398785591125,0.9200000166893005,0.001
0.2974399924278259,0.9240000247955322,0.28094610571861267,0.9200000166893005,0.001
0.29171425104141235,0.9300000071525574,0.28067001700401306,0.9200000166893005,0.001
0.29933491349220276,0.9300000071525574,0.28041714429855347,0.9200000166893005,0.001
0.301760196685791,0.9300000071525574,0.2801131308078766,0.9200000166893005,0.001
0.3022715747356415,0.9279999732971191,0.2798442542552948,0.9200000166893005,0.001
0.2972939610481262,0.9200000166893005,0.2795279920101166,0.9202222228050232,0.001
0.2933361828327179,0.9300000071525574,0.2792712450027466,0.9202222228050232,0.001
0.2947167456150055,0.9240000247955322,0.27901118993759155,0.9204444289207458,0.001
0.3051002025604248,0.9240000247955322,0.2786860167980194,0.9204444289207458,0.001
0.30162107944488525,0.9259999990463257,0.2784616947174072,0.9204444289207458,0.001
0.2904220521450043,0.9279999732971191,0.27817657589912415,0.9206666946411133,0.001
0.2959979772567749,0.9259999990463257,0.277904748916626,0.9208889007568359,0.001
0.28469714522361755,0.9279999732971191,0.2776058614253998,0.9208889007568359,0.001
0.30065059661865234,0.9300000071525574,0.2772730886936188,0.9208889007568359,0.001
0.2878308594226837,0.9300000071525574,0.2770220637321472,0.9211111068725586,0.001
0.2805626392364502,0.9259999990463257,0.27678486704826355,0.9211111068725586,0.001
0.2848622798919678,0.9300000071525574,0.2764875590801239,0.9211111068725586,0.001
0.30049824714660645,0.9240000247955322,0.2761372923851013,0.9208889007568359,0.001
0.2930257320404053,0.9179999828338623,0.2758415937423706,0.9208889007568359,0.001
0.2930295467376709,0.9240000247955322,0.27557992935180664,0.9211111068725586,0.001
0.2932722866535187,0.9319999814033508,0.2753767967224121,0.9211111068725586,0.001
0.2834887206554413,0.9240000247955322,0.2751041650772095,0.9211111068725586,0.001
0.28242263197898865,0.9300000071525574,0.2748539447784424,0.9211111068725586,0.001
0.2904511094093323,0.9200000166893005,0.2746414840221405,0.9213333129882812,0.001
0.2896956503391266,0.9279999732971191,0.2744653522968292,0.9213333129882812,0.001
0.28763526678085327,0.9240000247955322,0.27426671981811523,0.9213333129882812,0.001
0.2874578833580017,0.9279999732971191,0.2740297019481659,0.9215555787086487,0.001
0.28980278968811035,0.9279999732971191,0.27373194694519043,0.9217777848243713,0.001
0.2912832200527191,0.9259999990463257,0.27348658442497253,0.9217777848243713,0.001
0.28310418128967285,0.9340000152587891,0.2732716202735901,0.9215555787086487,0.001
0.27286508679389954,0.9279999732971191,0.27302104234695435,0.9215555787086487,0.001
0.2864096164703369,0.9259999990463257,0.27278923988342285,0.9213333129882812,0.001
0.2782951593399048,0.9240000247955322,0.272574782371521,0.9215555787086487,0.001
0.28337299823760986,0.9279999732971191,0.2723160684108734,0.9213333129882812,0.001
0.28090900182724,0.9340000152587891,0.27210038900375366,0.9215555787086487,0.001
0.2857690155506134,0.9300000071525574,0.2718847990036011,0.9215555787086487,0.001
0.28497475385665894,0.921999990940094,0.2716526687145233,0.9215555787086487,0.001
0.29922211170196533,0.9259999990463257,0.27138006687164307,0.9217777848243713,0.001
0.27039575576782227,0.9259999990463257,0.27121371030807495,0.9217777848243713,0.001
0.2959609627723694,0.921999990940094,0.2709478735923767,0.9217777848243713,0.001
0.29271429777145386,0.9259999990463257,0.2707197666168213,0.9217777848243713,0.001
0.28060680627822876,0.9300000071525574,0.2705184519290924,0.9217777848243713,0.001
0.28422093391418457,0.9259999990463257,0.270322322845459,0.9217777848243713,0.001
0.2755372226238251,0.9259999990463257,0.27009162306785583,0.9217777848243713,0.001
0.2716918885707855,0.9259999990463257,0.2699318528175354,0.9217777848243713,0.001
0.28528860211372375,0.9240000247955322,0.26969894766807556,0.9217777848243713,0.001
0.29088926315307617,0.9259999990463257,0.26948294043540955,0.9217777848243713,0.001
0.2793484032154083,0.921999990940094,0.2692631483078003,0.9217777848243713,0.001
0.271353542804718,0.9240000247955322,0.269043505191803,0.9217777848243713,0.001
0.28592607378959656,0.921999990940094,0.268823504447937,0.9217777848243713,0.001
0.2880914807319641,0.9200000166893005,0.2685711979866028,0.9217777848243713,0.001
0.26948267221450806,0.9259999990463257,0.268327534198761,0.9217777848243713,0.001
0.26683706045150757,0.9279999732971191,0.26820316910743713,0.9217777848243713,0.001
0.26718175411224365,0.9340000152587891,0.26796042919158936,0.9217777848243713,0.001
0.2820081114768982,0.9259999990463257,0.2677609324455261,0.9217777848243713,0.001
0.2757537364959717,0.9319999814033508,0.26749518513679504,0.9217777848243713,0.001
0.2821944057941437,0.9259999990463257,0.26732519268989563,0.9217777848243713,0.001
0.27013495564460754,0.9279999732971191,0.26713332533836365,0.9217777848243713,0.001
0.27351340651512146,0.9240000247955322,0.26694175601005554,0.9217777848243713,0.001
0.26753097772598267,0.9279999732971191,0.2668604552745819,0.9217777848243713,0.001
0.27427664399147034,0.9300000071525574,0.26665934920310974,0.9217777848243713,0.001
0.2725258767604828,0.9300000071525574,0.26650917530059814,0.9217777848243713,0.001
0.2743111252784729,0.9259999990463257,0.2661903202533722,0.9217777848243713,0.001
0.2771075367927551,0.921999990940094,0.265960156917572,0.9217777848243713,0.001
0.27984383702278137,0.9259999990463257,0.26581043004989624,0.9217777848243713,0.001
0.26611143350601196,0.9319999814033508,0.26558718085289,0.9217777848243713,0.001
0.2824302613735199,0.9179999828338623,0.2654140591621399,0.9217777848243713,0.001
0.26911914348602295,0.9319999814033508,0.26524707674980164,0.921999990940094,0.001
0.2689187824726105,0.9340000152587891,0.26510611176490784,0.921999990940094,0.001
0.25565043091773987,0.9359999895095825,0.26494258642196655,0.921999990940094,0.001
0.28394317626953125,0.9279999732971191,0.2647467851638794,0.921999990940094,0.001
0.2684282064437866,0.9300000071525574,0.26455098390579224,0.921999990940094,0.001
0.2811296582221985,0.9259999990463257,0.26437845826148987,0.921999990940094,0.001
0.2687816321849823,0.9279999732971191,0.2642432451248169,0.921999990940094,0.001
0.27038300037384033,0.9319999814033508,0.26406130194664,0.921999990940094,0.001
0.2791097164154053,0.9300000071525574,0.26387596130371094,0.921999990940094,0.001
0.27703213691711426,0.9300000071525574,0.2636258602142334,0.921999990940094,0.001
0.2699505090713501,0.9240000247955322,0.2633397579193115,0.921999990940094,0.001
0.2818630039691925,0.9279999732971191,0.2631450891494751,0.921999990940094,0.001
0.27776408195495605,0.9259999990463257,0.2629052698612213,0.921999990940094,0.001
0.2665669322013855,0.9319999814033508,0.26274630427360535,0.921999990940094,0.001
0.2780217230319977,0.9259999990463257,0.2625807523727417,0.9222221970558167,0.001
0.27214744687080383,0.9300000071525574,0.26239705085754395,0.9222221970558167,0.001
0.2701554298400879,0.921999990940094,0.26220282912254333,0.9222221970558167,0.001
0.2587386965751648,0.9300000071525574,0.26204755902290344,0.9222221970558167,0.001
0.2700335383415222,0.9259999990463257,0.26186227798461914,0.9222221970558167,0.001
0.2612636685371399,0.9279999732971191,0.26163944602012634,0.9224444627761841,0.001
0.27454403042793274,0.9259999990463257,0.2614288032054901,0.9224444627761841,0.001
0.2855816185474396,0.9300000071525574,0.26123571395874023,0.9224444627761841,0.001
0.27507737278938293,0.9259999990463257,0.2610778510570526,0.9226666688919067,0.001
0.2624245285987854,0.9259999990463257,0.2609453797340393,0.9224444627761841,0.001
0.2541908323764801,0.9240000247955322,0.2608084976673126,0.9224444627761841,0.001
0.2626951336860657,0.9300000071525574,0.26063093543052673,0.9224444627761841,0.001
0.2660030722618103,0.9319999814033508,0.26040565967559814,0.9222221970558167,0.001
0.26228150725364685,0.9259999990463257,0.2602611780166626,0.9222221970558167,0.001
0.26268985867500305,0.9279999732971191,0.2600858211517334,0.9222221970558167,0.001
0.27179384231567383,0.9279999732971191,0.25994396209716797,0.9222221970558167,0.001
0.252541720867157,0.9319999814033508,0.25975656509399414,0.9222221970558167,0.001
0.27132368087768555,0.9259999990463257,0.2596200406551361,0.9222221970558167,0.001
0.2632485628128052,0.9279999732971191,0.25948187708854675,0.9222221970558167,0.001
0.2627885937690735,0.9300000071525574,0.25941377878189087,0.9224444627761841,0.001
0.2748382091522217,0.9259999990463257,0.25927358865737915,0.9224444627761841,0.001
0.27290019392967224,0.9279999732971191,0.25912678241729736,0.9224444627761841,0.001
0.254560649394989,0.9279999732971191,0.25896477699279785,0.9224444627761841,0.001
0.2728894054889679,0.9300000071525574,0.2587929368019104,0.9224444627761841,0.001
0.2647569477558136,0.9279999732971191,0.25864070653915405,0.9224444627761841,0.001
0.2738560736179352,0.9259999990463257,0.2584756314754486,0.9224444627761841,0.001
0.2716347575187683,0.9300000071525574,0.258326917886734,0.9224444627761841,0.001
0.2513607144355774,0.9300000071525574,0.2582022547721863,0.9224444627761841,0.001
0.2687378227710724,0.9319999814033508,0.258021742105484,0.9222221970558167,0.001
0.25559306144714355,0.9300000071525574,0.25791236758232117,0.9222221970558167,0.001
0.25802573561668396,0.9259999990463257,0.2576791048049927,0.9224444627761841,0.001
0.2508485019207001,0.9319999814033508,0.2575426399707794,0.9224444627761841,0.001
0.2575654089450836,0.9259999990463257,0.257442444562912,0.9224444627761841,0.001
0.25966760516166687,0.9319999814033508,0.25732994079589844,0.9224444627761841,0.001
0.25906142592430115,0.9340000152587891,0.2572269141674042,0.9224444627761841,0.001
0.2573634386062622,0.9340000152587891,0.2570357918739319,0.9224444627761841,0.001
0.2373189777135849,0.9359999895095825,0.25695693492889404,0.9224444627761841,0.001
0.2485640048980713,0.9259999990463257,0.25679028034210205,0.9224444627761841,0.001
0.260295033454895,0.9300000071525574,0.25666487216949463,0.9224444627761841,0.001
0.2613004744052887,0.9340000152587891,0.25650885701179504,0.9224444627761841,0.001
0.2645556628704071,0.9240000247955322,0.25637513399124146,0.9224444627761841,0.001
0.2621072828769684,0.9279999732971191,0.25630664825439453,0.9224444627761841,0.001
0.2608683109283447,0.9300000071525574,0.25615864992141724,0.9224444627761841,0.001
0.26424095034599304,0.9300000071525574,0.25599196553230286,0.9224444627761841,0.001
0.26405400037765503,0.9259999990463257,0.2558818757534027,0.9224444627761841,0.001
0.25772207975387573,0.9279999732971191,0.2557033896446228,0.9224444627761841,0.001
0.26771271228790283,0.9319999814033508,0.25548285245895386,0.9224444627761841,0.001
0.2482123076915741,0.9319999814033508,0.2553482949733734,0.9224444627761841,0.001
0.2702608108520508,0.9259999990463257,0.25521254539489746,0.9224444627761841,0.001
0.2468835860490799,0.9259999990463257,0.2550618350505829,0.9224444627761841,0.001
0.2603701651096344,0.9300000071525574,0.2548709213733673,0.9224444627761841,0.001
0.260101854801178,0.9300000071525574,0.2547452747821808,0.9224444627761841,0.001
0.2628156542778015,0.9319999814033508,0.2545561194419861,0.9224444627761841,0.001
0.2501886188983917,0.9279999732971191,0.25444090366363525,0.9224444627761841,0.001
0.2593632638454437,0.9259999990463257,0.2543110251426697,0.9224444627761841,0.001
0.2630743980407715,0.9300000071525574,0.25412696599960327,0.9224444627761841,0.001
0.25182366371154785,0.9279999732971191,0.25396594405174255,0.9224444627761841,0.001
0.25553420186042786,0.9340000152587891,0.25373855233192444,0.9224444627761841,0.001
0.2710934579372406,0.9279999732971191,0.25361180305480957,0.9224444627761841,0.001
0.23877406120300293,0.9340000152587891,0.2534957826137543,0.9224444627761841,0.001
0.26260459423065186,0.9279999732971191,0.2533054053783417,0.9224444627761841,0.001
0.24608027935028076,0.9279999732971191,0.25315117835998535,0.9224444627761841,0.001
0.25267767906188965,0.9319999814033508,0.2530878782272339,0.9224444627761841,0.001
0.2600606381893158,0.9319999814033508,0.25296729803085327,0.9224444627761841,0.001
0.26360732316970825,0.9240000247955322,0.25283852219581604,0.9224444627761841,0.001
0.263115257024765,0.9319999814033508,0.25273069739341736,0.9224444627761841,0.001
0.24770928919315338,0.9380000233650208,0.2526257336139679,0.9224444627761841,0.001
0.2620847821235657,0.9240000247955322,0.25255686044692993,0.9226666688919067,0.001
0.24502256512641907,0.9399999976158142,0.2525064945220947,0.9226666688919067,0.001
0.26430612802505493,0.9319999814033508,0.2523844838142395,0.9226666688919067,0.001
0.24954158067703247,0.9340000152587891,0.25225964188575745,0.9226666688919067,0.001
0.25117847323417664,0.9300000071525574,0.25215935707092285,0.9226666688919067,0.001
0.25806206464767456,0.9340000152587891,0.25205105543136597,0.9226666688919067,0.001
0.24441134929656982,0.9300000071525574,0.25194647908210754,0.9226666688919067,0.001
0.2513557970523834,0.9279999732971191,0.2518652677536011,0.9228888750076294,0.001
0.26208317279815674,0.9259999990463257,0.25170984864234924,0.9228888750076294,0.001
0.2528688609600067,0.9340000152587891,0.25157859921455383,0.9228888750076294,0.001
0.2533160448074341,0.9300000071525574,0.2515033781528473,0.9228888750076294,0.001
0.2536541521549225,0.9259999990463257,0.25133949518203735,0.9228888750076294,0.001
0.26890134811401367,0.9340000152587891,0.2511115074157715,0.9228888750076294,0.001
0.24985413253307343,0.9359999895095825,0.25093984603881836,0.9228888750076294,0.001
0.2469744086265564,0.9300000071525574,0.25077110528945923,0.9228888750076294,0.001
0.24339209496974945,0.921999990940094,0.2506598234176636,0.9228888750076294,0.001
0.26587697863578796,0.9259999990463257,0.2505437135696411,0.9228888750076294,0.001
0.2641863524913788,0.921999990940094,0.2504126727581024,0.9228888750076294,0.001
0.2703036963939667,0.9319999814033508,0.2502966523170471,0.9228888750076294,0.001
0.2501262128353119,0.9359999895095825,0.25016653537750244,0.9228888750076294,0.001
0.26920950412750244,0.9300000071525574,0.25001752376556396,0.9231111407279968,0.001
0.24663715064525604,0.9319999814033508,0.24990597367286682,0.9231111407279968,0.001
0.2627498209476471,0.9300000071525574,0.24977949261665344,0.9231111407279968,0.001
0.2611161172389984,0.9279999732971191,0.24968324601650238,0.9231111407279968,0.001
0.25883734226226807,0.9300000071525574,0.24955545365810394,0.9231111407279968,0.001
0.25590065121650696,0.9279999732971191,0.2494371235370636,0.9231111407279968,0.001
0.24160610139369965,0.9340000152587891,0.24935674667358398,0.9231111407279968,0.001
0.2581266164779663,0.9300000071525574,0.24922989308834076,0.9231111407279968,0.001
0.24923628568649292,0.9279999732971191,0.24916888773441315,0.9231111407279968,0.001
0.2366255670785904,0.9279999732971191,0.24902816116809845,0.9231111407279968,0.001
0.2534104883670807,0.9279999732971191,0.24890820682048798,0.9233333468437195,0.001
0.25985023379325867,0.9240000247955322,0.24877655506134033,0.9233333468437195,0.001
0.24627164006233215,0.9279999732971191,0.24864895641803741,0.9233333468437195,0.001
0.23414014279842377,0.9319999814033508,0.24860554933547974,0.9233333468437195,0.001
0.24470984935760498,0.9319999814033508,0.24844896793365479,0.9233333468437195,0.001
0.24838341772556305,0.9340000152587891,0.24834540486335754,0.9231111407279968,0.001
0.26017290353775024,0.9300000071525574,0.24822263419628143,0.9231111407279968,0.001
0.23954154551029205,0.9300000071525574,0.24815241992473602,0.9233333468437195,0.001
0.24043245613574982,0.9300000071525574,0.24804291129112244,0.9233333468437195,0.001
0.2495683878660202,0.9319999814033508,0.24792301654815674,0.9235555529594421,0.001
0.23150239884853363,0.9300000071525574,0.2477843463420868,0.9235555529594421,0.001
0.24397636950016022,0.9340000152587891,0.2477068454027176,0.9237777590751648,0.001
0.25449883937835693,0.9300000071525574,0.24758292734622955,0.9237777590751648,0.001
0.24682897329330444,0.9319999814033508,0.2474910467863083,0.9240000247955322,0.001
0.24676935374736786,0.9319999814033508,0.2473711222410202,0.9240000247955322,0.001
0.24329034984111786,0.9340000152587891,0.24722537398338318,0.9242222309112549,0.001
0.24282555282115936,0.9359999895095825,0.24709461629390717,0.9242222309112549,0.001
0.25024402141571045,0.9300000071525574,0.24700339138507843,0.9242222309112549,0.001
0.24898338317871094,0.9319999814033508,0.24692822992801666,0.9244444370269775,0.001
0.24928291141986847,0.9279999732971191,0.24682475626468658,0.9244444370269775,0.001
0.24799439311027527,0.9300000071525574,0.24675317108631134,0.9244444370269775,0.001
0.23684094846248627,0.9300000071525574,0.24668267369270325,0.9244444370269775,0.001
0.24538196623325348,0.9300000071525574,0.24659320712089539,0.9244444370269775,0.001
0.2345421016216278,0.9319999814033508,0.2464568167924881,0.9244444370269775,0.001
0.24394765496253967,0.9300000071525574,0.2464144378900528,0.9244444370269775,0.001
0.24136866629123688,0.9300000071525574,0.24633187055587769,0.9244444370269775,0.001
0.24262231588363647,0.9340000152587891,0.24626706540584564,0.9244444370269775,0.001
0.25185683369636536,0.9319999814033508,0.24611282348632812,0.9244444370269775,0.001
0.24474605917930603,0.9380000233650208,0.24606432020664215,0.9244444370269775,0.001
0.2376241832971573,0.9340000152587891,0.24591918289661407,0.9244444370269775,0.001
0.2525622546672821,0.9300000071525574,0.24583759903907776,0.9244444370269775,0.001
0.23020733892917633,0.9380000233650208,0.24578185379505157,0.9244444370269775,0.001
0.24644547700881958,0.9300000071525574,0.24571506679058075,0.9244444370269775,0.001
0.23630011081695557,0.9279999732971191,0.2456011325120926,0.9244444370269775,0.001
0.24521248042583466,0.9319999814033508,0.24542772769927979,0.9244444370269775,0.001
0.2588783800601959,0.9240000247955322,0.2452886551618576,0.9246666431427002,0.001
0.23790310323238373,0.9340000152587891,0.24521397054195404,0.9248889088630676,0.001
0.2395738810300827,0.9279999732971191,0.24510064721107483,0.9251111149787903,0.001
0.25682029128074646,0.9259999990463257,0.2449696660041809,0.9251111149787903,0.001
0.2498610019683838,0.9319999814033508,0.24488487839698792,0.9251111149787903,0.001
0.24846260249614716,0.9319999814033508,0.2448565810918808,0.9251111149787903,0.001
0.23763588070869446,0.9300000071525574,0.24479928612709045,0.9251111149787903,0.001
0.23456594347953796,0.9319999814033508,0.24471893906593323,0.9251111149787903,0.001
0.23158788681030273,0.9359999895095825,0.24462871253490448,0.9253333210945129,0.001
0.2362438291311264,0.9319999814033508,0.24455325305461884,0.9253333210945129,0.001
0.25088322162628174,0.9300000071525574,0.2443387806415558,0.9255555272102356,0.001
0.24272631108760834,0.9359999895095825,0.24424943327903748,0.9255555272102356,0.001
0.23210203647613525,0.9359999895095825,0.24418340623378754,0.9255555272102356,0.001
0.24900558590888977,0.9279999732971191,0.24407075345516205,0.925777792930603,0.001
0.2462509423494339,0.9300000071525574,0.2439945787191391,0.9259999990463257,0.001
0.23426669836044312,0.9319999814033508,0.24384130537509918,0.9259999990463257,0.001
0.24336329102516174,0.9300000071525574,0.2437388002872467,0.9259999990463257,0.001
0.24037516117095947,0.9380000233650208,0.24362803995609283,0.9259999990463257,0.001
0.21866481006145477,0.9380000233650208,0.24362532794475555,0.9262222051620483,0.001
0.23606465756893158,0.9319999814033508,0.2435721904039383,0.9262222051620483,0.001
0.24036897718906403,0.9359999895095825,0.24345806241035461,0.9262222051620483,0.001
0.23643043637275696,0.9319999814033508,0.24338430166244507,0.9262222051620483,0.001
0.24763360619544983,0.9319999814033508,0.24322833120822906,0.9264444708824158,0.001
0.23062795400619507,0.9279999732971191,0.24313923716545105,0.9264444708824158,0.001
0.2389184981584549,0.9300000071525574,0.24306559562683105,0.9264444708824158,0.001
0.23577257990837097,0.9340000152587891,0.2429557889699936,0.9266666769981384,0.001
0.24322602152824402,0.9319999814033508,0.2429359257221222,0.9268888831138611,0.001
0.24199923872947693,0.9300000071525574,0.24288411438465118,0.9271110892295837,0.001
0.22890718281269073,0.9380000233650208,0.2428392469882965,0.9271110892295837,0.001
0.24180173873901367,0.9340000152587891,0.24277636408805847,0.9271110892295837,0.001
0.22939127683639526,0.9399999976158142,0.2426789551973343,0.9271110892295837,0.001
0.23655201494693756,0.9359999895095825,0.24257929623126984,0.9271110892295837,0.001
0.23369871079921722,0.9340000152587891,0.2424575537443161,0.9271110892295837,0.001
0.2623448967933655,0.9279999732971191,0.24235790967941284,0.9271110892295837,0.001
0.22479847073554993,0.9359999895095825,0.24234583973884583,0.9271110892295837,0.001
0.23567835986614227,0.9340000152587891,0.2423042505979538,0.9271110892295837,0.001
0.24094972014427185,0.9319999814033508,0.24225957691669464,0.9271110892295837,0.001
0.23421551287174225,0.9359999895095825,0.2421935498714447,0.9271110892295837,0.001
0.2228366732597351,0.9319999814033508,0.24206040799617767,0.9271110892295837,0.001
0.2359660267829895,0.9300000071525574,0.24194540083408356,0.9273333549499512,0.001
0.23377873003482819,0.9380000233650208,0.24187637865543365,0.9275555610656738,0.001
0.2388366460800171,0.9340000152587891,0.241811141371727,0.9275555610656738,0.001
0.23368002474308014,0.9359999895095825,0.24168644845485687,0.9275555610656738,0.001
0.23374153673648834,0.9340000152587891,0.2415788620710373,0.9275555610656738,0.001
0.23947876691818237,0.9319999814033508,0.24153746664524078,0.9275555610656738,0.001
0.22381040453910828,0.9319999814033508,0.241472527384758,0.9275555610656738,0.001
0.22843869030475616,0.9300000071525574,0.24146242439746857,0.9277777671813965,0.001
0.23772786557674408,0.9300000071525574,0.24134477972984314,0.9277777671813965,0.001
0.22503937780857086,0.9300000071525574,0.24129647016525269,0.9279999732971191,0.001
0.2210623174905777,0.9359999895095825,0.2412087470293045,0.9279999732971191,0.001
0.23462599515914917,0.9300000071525574,0.241158127784729,0.9279999732971191,0.001
0.26210784912109375,0.9279999732971191,0.2409997284412384,0.9279999732971191,0.001
0.24206691980361938,0.9319999814033508,0.24084554612636566,0.9279999732971191,0.001
0.2404000163078308,0.9359999895095825,0.24077394604682922,0.9279999732971191,0.001
0.2405569702386856,0.9380000233650208,0.24069207906723022,0.9279999732971191,0.001
0.251194030046463,0.9279999732971191,0.24058742821216583,0.9279999732971191,0.001
0.23624290525913239,0.9279999732971191,0.24051082134246826,0.9279999732971191,0.001
0.23414239287376404,0.9300000071525574,0.2404509037733078,0.9279999732971191,0.001
0.2526065707206726,0.9279999732971191,0.24033385515213013,0.9279999732971191,0.001
0.24504049122333527,0.9279999732971191,0.24022819101810455,0.9279999732971191,0.001
0.23335906863212585,0.9340000152587891,0.2401164025068283,0.9279999732971191,0.001
0.2476455122232437,0.9340000152587891,0.23996147513389587,0.9277777671813965,0.001
0.2407689243555069,0.9319999814033508,0.23991405963897705,0.9277777671813965,0.001
0.23270748555660248,0.9419999718666077,0.23986279964447021,0.9279999732971191,0.001
0.2350919097661972,0.9340000152587891,0.23984453082084656,0.9279999732971191,0.001
0.23891723155975342,0.9359999895095825,0.23981459438800812,0.9279999732971191,0.001
0.22353015840053558,0.9340000152587891,0.23980213701725006,0.9282222390174866,0.001
0.24092377722263336,0.9340000152587891,0.239765003323555,0.9282222390174866,0.001
0.23176425695419312,0.9340000152587891,0.23969677090644836,0.9284444451332092,0.001
0.23892973363399506,0.9340000152587891,0.23957528173923492,0.9288889169692993,0.001
0.23254913091659546,0.9380000233650208,0.23951593041419983,0.9288889169692993,0.001
0.23559819161891937,0.9319999814033508,0.23947913944721222,0.9288889169692993,0.001
0.22577518224716187,0.9359999895095825,0.2393648475408554,0.9286666512489319,0.001
0.2356046736240387,0.9319999814033508,0.2393268197774887,0.9288889169692993,0.001
0.22393260896205902,0.9359999895095825,0.23923325538635254,0.9288889169692993,0.001
0.24918688833713531,0.9319999814033508,0.23922064900398254,0.929111123085022,0.001
0.2382563352584839,0.9300000071525574,0.239125594496727,0.929111123085022,0.001
0.24977967143058777,0.9340000152587891,0.23896826803684235,0.9293333292007446,0.001
0.21689705550670624,0.9340000152587891,0.2389284372329712,0.9293333292007446,0.001
0.24264538288116455,0.9300000071525574,0.23888231813907623,0.9293333292007446,0.001
0.2299608439207077,0.9340000152587891,0.23888427019119263,0.9295555353164673,0.001
0.22423020005226135,0.9399999976158142,0.23887261748313904,0.9295555353164673,0.001
0.2240525782108307,0.9340000152587891,0.23880738019943237,0.9297778010368347,0.001
0.2283814400434494,0.9319999814033508,0.23873703181743622,0.9297778010368347,0.001
0.23427216708660126,0.9319999814033508,0.2386486828327179,0.9297778010368347,0.001
0.24101252853870392,0.9319999814033508,0.23854736983776093,0.9300000071525574,0.001
0.24230922758579254,0.9340000152587891,0.23850885033607483,0.9300000071525574,0.001
0.23114913702011108,0.9319999814033508,0.23838527500629425,0.9297778010368347,0.001
0.21831849217414856,0.9359999895095825,0.23835690319538116,0.9300000071525574,0.001
0.23162706196308136,0.9259999990463257,0.23829150199890137,0.9300000071525574,0.001
0.23634769022464752,0.9319999814033508,0.23820209503173828,0.9300000071525574,0.001
0.22996149957180023,0.9340000152587891,0.2381260246038437,0.9297778010368347,0.001
0.24916349351406097,0.9340000152587891,0.23806653916835785,0.9297778010368347,0.001
0.24399857223033905,0.9359999895095825,0.23800130188465118,0.9300000071525574,0.001
0.21952196955680847,0.9380000233650208,0.2379702627658844,0.9300000071525574,0.001
0.22450460493564606,0.9359999895095825,0.23784703016281128,0.9300000071525574,0.001
0.23476046323776245,0.9359999895095825,0.23784077167510986,0.9300000071525574,0.001
0.22986863553524017,0.9359999895095825,0.23771388828754425,0.9300000071525574,0.001
0.22788280248641968,0.9300000071525574,0.23765182495117188,0.9300000071525574,0.001
0.22944915294647217,0.9359999895095825,0.237587571144104,0.9300000071525574,0.001
0.23744899034500122,0.9300000071525574,0.23751282691955566,0.9300000071525574,0.001
0.23252540826797485,0.9380000233650208,0.23745162785053253,0.9300000071525574,0.001
0.2273370772600174,0.9359999895095825,0.2373322993516922,0.9300000071525574,0.001
0.22711868584156036,0.9319999814033508,0.23733150959014893,0.9300000071525574,0.001
0.22595074772834778,0.9340000152587891,0.23719914257526398,0.9300000071525574,0.001
0.22606241703033447,0.9340000152587891,0.23713265359401703,0.9300000071525574,0.001
0.22333571314811707,0.9319999814033508,0.23706379532814026,0.9300000071525574,0.001
0.23692207038402557,0.9340000152587891,0.23702755570411682,0.9300000071525574,0.001
0.2299741953611374,0.9259999990463257,0.236990824341774,0.9300000071525574,0.001
0.23489035665988922,0.9319999814033508,0.23689916729927063,0.9300000071525574,0.001
0.21959659457206726,0.9319999814033508,0.23683471977710724,0.9300000071525574,0.001
0.23460599780082703,0.9279999732971191,0.23675338923931122,0.9300000071525574,0.001
0.2208613157272339,0.9340000152587891,0.23674730956554413,0.93022221326828,0.001
0.2426287680864334,0.9340000152587891,0.2366781383752823,0.93022221326828,0.001
0.22309847176074982,0.9340000152587891,0.2366422563791275,0.93022221326828,0.001
0.234258770942688,0.9300000071525574,0.2365511655807495,0.93022221326828,0.001
0.23475128412246704,0.9340000152587891,0.23651599884033203,0.9304444193840027,0.001
0.2354736477136612,0.9359999895095825,0.2365397959947586,0.9304444193840027,0.001
0.23343145847320557,0.9319999814033508,0.23650981485843658,0.9304444193840027,0.001
0.2131413072347641,0.9419999718666077,0.23641371726989746,0.9304444193840027,0.001
0.22675171494483948,0.9359999895095825,0.23631244897842407,0.9306666851043701,0.001
0.23323728144168854,0.9279999732971191,0.2362779676914215,0.9306666851043701,0.001
0.22691002488136292,0.9300000071525574,0.2362653762102127,0.9306666851043701,0.001
0.22494296729564667,0.9319999814033508,0.2361762672662735,0.9306666851043701,0.001
0.21859118342399597,0.9319999814033508,0.23611973226070404,0.9308888912200928,0.001
0.2353544682264328,0.9359999895095825,0.23606272041797638,0.9311110973358154,0.001
0.2289595603942871,0.9300000071525574,0.23604676127433777,0.9313333630561829,0.001
0.2222033143043518,0.9399999976158142,0.23600409924983978,0.9313333630561829,0.001
0.22733664512634277,0.9319999814033508,0.23595014214515686,0.9313333630561829,0.001
0.21626123785972595,0.9359999895095825,0.23595993220806122,0.9313333630561829,0.001
0.23145247995853424,0.9399999976158142,0.23592054843902588,0.9315555691719055,0.001
0.22559569776058197,0.9340000152587891,0.2358442097902298,0.9315555691719055,0.001
0.23813171684741974,0.9300000071525574,0.23574912548065186,0.9315555691719055,0.001
0.2165389508008957,0.9399999976158142,0.23570616543293,0.9315555691719055,0.001
0.2250424027442932,0.9319999814033508,0.23567581176757812,0.9317777752876282,0.001
0.22108779847621918,0.9340000152587891,0.2355743795633316,0.9315555691719055,0.001
0.22368133068084717,0.9399999976158142,0.2355007827281952,0.9315555691719055,0.001
0.2278675138950348,0.9359999895095825,0.23541229963302612,0.9315555691719055,0.001
0.21760188043117523,0.9340000152587891,0.23536792397499084,0.9315555691719055,0.001
0.22772736847400665,0.9359999895095825,0.23532693088054657,0.9315555691719055,0.001
0.21807457506656647,0.9340000152587891,0.23533734679222107,0.9317777752876282,0.001
0.2097800374031067,0.9340000152587891,0.23529836535453796,0.9315555691719055,0.001
0.22102271020412445,0.9340000152587891,0.23526985943317413,0.9317777752876282,0.001
0.22264869511127472,0.9319999814033508,0.23517689108848572,0.9315555691719055,0.001
0.21707075834274292,0.9300000071525574,0.23506537079811096,0.9315555691719055,0.001
0.22742900252342224,0.9359999895095825,0.23502902686595917,0.9315555691719055,0.001
0.22850102186203003,0.9359999895095825,0.2349591702222824,0.9315555691719055,0.001
0.21051260828971863,0.9359999895095825,0.2349281907081604,0.9319999814033508,0.001
0.22542786598205566,0.9399999976158142,0.23491333425045013,0.9319999814033508,0.001
0.22832970321178436,0.9340000152587891,0.2348734587430954,0.9319999814033508,0.001
0.22155556082725525,0.9380000233650208,0.23481570184230804,0.9319999814033508,0.001
0.2283366620540619,0.9340000152587891,0.23475971817970276,0.9319999814033508,0.001
0.22268396615982056,0.9359999895095825,0.2347150295972824,0.9319999814033508,0.001
0.22840364277362823,0.9319999814033508,0.23461738228797913,0.9319999814033508,0.001
0.2220248579978943,0.9359999895095825,0.23451799154281616,0.9322222471237183,0.001
0.2273937612771988,0.9380000233650208,0.23444175720214844,0.9322222471237183,0.001
0.2157086879014969,0.9380000233650208,0.23442518711090088,0.9322222471237183,0.001
0.219733327627182,0.9359999895095825,0.23430824279785156,0.9322222471237183,0.001
0.2269802689552307,0.9300000071525574,0.2342427372932434,0.9322222471237183,0.001
0.2345823496580124,0.9340000152587891,0.2342044860124588,0.9324444532394409,0.001
0.22579951584339142,0.9319999814033508,0.23415221273899078,0.9322222471237183,0.001
0.23795849084854126,0.9319999814033508,0.23406049609184265,0.9322222471237183,0.001
0.21782861649990082,0.9359999895095825,0.23404136300086975,0.9324444532394409,0.001
0.213912695646286,0.9399999976158142,0.23398564755916595,0.9324444532394409,0.001
0.22088609635829926,0.9300000071525574,0.23389284312725067,0.9322222471237183,0.001
0.2356521040201187,0.9319999814033508,0.23387247323989868,0.9324444532394409,0.001
0.2246532291173935,0.9319999814033508,0.23378805816173553,0.9324444532394409,0.001
0.22804579138755798,0.9319999814033508,0.2336815595626831,0.9324444532394409,0.001
0.22566069662570953,0.9359999895095825,0.23361420631408691,0.9324444532394409,0.001
0.2187834084033966,0.9319999814033508,0.23357465863227844,0.9324444532394409,0.001
0.22638481855392456,0.9319999814033508,0.2336220145225525,0.9326666593551636,0.001
0.22310006618499756,0.9419999718666077,0.233559712767601,0.9326666593551636,0.001
0.22899799048900604,0.9300000071525574,0.23348774015903473,0.9328888654708862,0.001
0.21574746072292328,0.9380000233650208,0.23343288898468018,0.9328888654708862,0.001
0.23373012244701385,0.9279999732971191,0.23333686590194702,0.9328888654708862,0.001
0.22456194460391998,0.9340000152587891,0.2333143651485443,0.9328888654708862,0.001
0.21019209921360016,0.9380000233650208,0.2332904189825058,0.9328888654708862,0.001
0.21082234382629395,0.9419999718666077,0.23326614499092102,0.9328888654708862,0.001
0.2013239562511444,0.9440000057220459,0.23325328528881073,0.9328888654708862,0.001
0.21420931816101074,0.9359999895095825,0.23327964544296265,0.9328888654708862,0.001
0.22011162340641022,0.9380000233650208,0.2332795113325119,0.9328888654708862,0.001
0.23555637896060944,0.9340000152587891,0.2332354635000229,0.9328888654708862,0.001
0.22318866848945618,0.9340000152587891,0.2331845462322235,0.9328888654708862,0.001
0.21115551888942719,0.9359999895095825,0.233193039894104,0.9328888654708862,0.001
0.21397088468074799,0.9340000152587891,0.2331470549106598,0.9328888654708862,0.001
0.23636534810066223,0.9340000152587891,0.23311932384967804,0.9328888654708862,0.001
0.2206539809703827,0.9319999814033508,0.23298603296279907,0.9328888654708862,0.001
0.20908065140247345,0.9399999976158142,0.23295578360557556,0.9328888654708862,0.001
0.22107860445976257,0.9359999895095825,0.23287901282310486,0.9328888654708862,0.001
0.21561531722545624,0.9399999976158142,0.23285658657550812,0.9328888654708862,0.001
0.21943549811840057,0.9399999976158142,0.2328452169895172,0.9328888654708862,0.001
0.21736553311347961,0.9359999895095825,0.23280495405197144,0.9328888654708862,0.001
0.21656812727451324,0.9340000152587891,0.23277419805526733,0.9328888654708862,0.001
0.2290026992559433,0.9380000233650208,0.2326851636171341,0.9328888654708862,0.001
0.20855364203453064,0.9399999976158142,0.232646644115448,0.9328888654708862,0.001
0.21521511673927307,0.9279999732971191,0.23259568214416504,0.9328888654708862,0.001
0.22560033202171326,0.9300000071525574,0.23254983127117157,0.9328888654708862,0.001
0.2302704006433487,0.9340000152587891,0.23253482580184937,0.9328888654708862,0.001
0.22274330258369446,0.9340000152587891,0.23248043656349182,0.9328888654708862,0.001
0.22211115062236786,0.9340000152587891,0.23239992558956146,0.9331111311912537,0.001
0.20963740348815918,0.9440000057220459,0.2324267029762268,0.9328888654708862,0.001
0.2259877622127533,0.9380000233650208,0.23238183557987213,0.9331111311912537,0.001
0.205275297164917,0.9380000233650208,0.23236778378486633,0.9331111311912537,0.001
0.22155258059501648,0.9359999895095825,0.2323085367679596,0.9331111311912537,0.001
0.22846029698848724,0.9380000233650208,0.23225800693035126,0.9331111311912537,0.001
0.2137245386838913,0.9340000152587891,0.23221424221992493,0.9331111311912537,0.001
0.22632530331611633,0.9359999895095825,0.2321859747171402,0.9331111311912537,0.001
0.22264117002487183,0.9300000071525574,0.2321167290210724,0.9331111311912537,0.001
0.21639646589756012,0.9440000057220459,0.2320929914712906,0.9331111311912537,0.001
0.22690445184707642,0.9380000233650208,0.23205113410949707,0.9331111311912537,0.001
0.2093799114227295,0.9319999814033508,0.23196282982826233,0.9331111311912537,0.001
0.21185171604156494,0.9359999895095825,0.23193077743053436,0.9331111311912537,0.001
0.22897900640964508,0.9359999895095825,0.23186251521110535,0.9331111311912537,0.001
0.21733281016349792,0.9319999814033508,0.23186710476875305,0.9331111311912537,0.001
0.22164836525917053,0.9359999895095825,0.2318151295185089,0.9331111311912537,0.001
0.21220150589942932,0.9359999895095825,0.23180782794952393,0.9331111311912537,0.001
0.21508941054344177,0.9359999895095825,0.2317330688238144,0.9331111311912537,0.001
0.2304588407278061,0.9340000152587891,0.2316536158323288,0.9331111311912537,0.001
0.21453134715557098,0.9440000057220459,0.231587752699852,0.9331111311912537,0.001
0.20494231581687927,0.9380000233650208,0.23152482509613037,0.9331111311912537,0.001
0.22815535962581635,0.9380000233650208,0.2315135896205902,0.9331111311912537,0.001
0.21184226870536804,0.9359999895095825,0.23141460120677948,0.9331111311912537,0.001
0.2158874273300171,0.9419999718666077,0.23140907287597656,0.9331111311912537,0.001
0.21848541498184204,0.9380000233650208,0.23131179809570312,0.9331111311912537,0.001
0.22570155560970306,0.9340000152587891,0.23123912513256073,0.9331111311912537,0.001
0.2070498764514923,0.9359999895095825,0.23121611773967743,0.9331111311912537,0.001
0.2027629315853119,0.9359999895095825,0.2312287837266922,0.9331111311912537,0.001
0.20783908665180206,0.9380000233650208,0.23123539984226227,0.9331111311912537,0.001
0.21676118671894073,0.9340000152587891,0.23117583990097046,0.9331111311912537,0.001
0.2147083878517151,0.9319999814033508,0.23113180696964264,0.9333333373069763,0.001
0.2200835645198822,0.9380000233650208,0.23106200993061066,0.9333333373069763,0.001
0.2240200638771057,0.9359999895095825,0.2309781312942505,0.9333333373069763,0.001
0.22549311816692352,0.9419999718666077,0.2308928519487381,0.933555543422699,0.001
0.21754823625087738,0.9399999976158142,0.23082639276981354,0.933555543422699,0.001
0.22098791599273682,0.9399999976158142,0.23074029386043549,0.933555543422699,0.001
0.2102867066860199,0.9440000057220459,0.23070719838142395,0.933555543422699,0.001
0.21799024939537048,0.9359999895095825,0.23067998886108398,0.933555543422699,0.001
0.2050890177488327,0.9380000233650208,0.23062944412231445,0.933555543422699,0.001
0.22250519692897797,0.9319999814033508,0.2306060940027237,0.933555543422699,0.001
0.2175392359495163,0.9340000152587891,0.23059453070163727,0.933555543422699,0.001
0.20925301313400269,0.9319999814033508,0.23049750924110413,0.933555543422699,0.001
0.20604035258293152,0.9419999718666077,0.23050472140312195,0.933555543422699,0.001
0.228244811296463,0.9319999814033508,0.23040172457695007,0.933555543422699,0.001
0.21615007519721985,0.9380000233650208,0.23033685982227325,0.933555543422699,0.001
0.2195526659488678,0.9380000233650208,0.23026199638843536,0.933555543422699,0.001
0.2122511863708496,0.9359999895095825,0.2302277833223343,0.933555543422699,0.001
0.21504950523376465,0.9340000152587891,0.230202779173851,0.933555543422699,0.001
0.20851807296276093,0.9440000057220459,0.2302236109972,0.933555543422699,0.001
0.21554747223854065,0.9399999976158142,0.23018434643745422,0.933555543422699,0.001
0.21392083168029785,0.9399999976158142,0.230192169547081,0.933555543422699,0.001
0.20771260559558868,0.9399999976158142,0.23016734421253204,0.933555543422699,0.001
0.21266958117485046,0.9380000233650208,0.23010855913162231,0.933555543422699,0.001
0.2143973410129547,0.9359999895095825,0.23004421591758728,0.933555543422699,0.001
0.21312716603279114,0.9359999895095825,0.2300029844045639,0.933555543422699,0.001
0.21986864507198334,0.9399999976158142,0.23002375662326813,0.933555543422699,0.001
0.2092144936323166,0.9340000152587891,0.22994574904441833,0.933555543422699,0.001
0.20640577375888824,0.9359999895095825,0.2298848181962967,0.933555543422699,0.001
0.22672805190086365,0.9359999895095825,0.22985799610614777,0.933555543422699,0.001
0.2069551646709442,0.9399999976158142,0.2298346310853958,0.933555543422699,0.001
0.21560409665107727,0.9340000152587891,0.22982560098171234,0.933555543422699,0.001
0.2319156378507614,0.9359999895095825,0.22976909577846527,0.933555543422699,0.001
0.2032974809408188,0.9440000057220459,0.22975778579711914,0.933555543422699,0.001
0.21767185628414154,0.9380000233650208,0.2297331839799881,0.933555543422699,0.001
0.21870627999305725,0.9340000152587891,0.22968557476997375,0.933555543422699,0.001
0.2159896045923233,0.9359999895095825,0.22969552874565125,0.933555543422699,0.001
0.20489531755447388,0.9419999718666077,0.22970852255821228,0.933555543422699,0.001
0.20873765647411346,0.9399999976158142,0.22962450981140137,0.933555543422699,0.001
0.2174435704946518,0.9399999976158142,0.2295980155467987,0.933555543422699,0.001
0.2226232886314392,0.9359999895095825,0.2295166552066803,0.933555543422699,0.001
0.20592981576919556,0.9340000152587891,0.22951605916023254,0.933555543422699,0.001
0.19730478525161743,0.9399999976158142,0.229502335190773,0.933555543422699,0.001
0.2141047865152359,0.9380000233650208,0.22944751381874084,0.933555543422699,0.001
0.21573814749717712,0.9319999814033508,0.2294677495956421,0.9337777495384216,0.001
0.20333759486675262,0.9399999976158142,0.22945208847522736,0.9337777495384216,0.001
0.2160254418849945,0.9340000152587891,0.2294289618730545,0.9337777495384216,0.001
0.2033386379480362,0.9399999976158142,0.2293734848499298,0.9337777495384216,0.001
0.21178756654262543,0.9399999976158142,0.22932861745357513,0.9337777495384216,0.001
0.20763419568538666,0.9399999976158142,0.22923608124256134,0.9337777495384216,0.001
0.22801460325717926,0.9359999895095825,0.22920222580432892,0.9340000152587891,0.001
0.21222884953022003,0.9380000233650208,0.22913557291030884,0.9337777495384216,0.001
0.22963915765285492,0.9359999895095825,0.22910845279693604,0.9340000152587891,0.001
0.215057373046875,0.9359999895095825,0.22909991443157196,0.9340000152587891,0.001
0.20354236662387848,0.9419999718666077,0.22904939949512482,0.9340000152587891,0.001
0.22183172404766083,0.9399999976158142,0.22899799048900604,0.9340000152587891,0.001
0.21727338433265686,0.9399999976158142,0.22897768020629883,0.9340000152587891,0.001
0.21380318701267242,0.9440000057220459,0.22889278829097748,0.9340000152587891,0.001
0.19724899530410767,0.9419999718666077,0.22885075211524963,0.9340000152587891,0.001
0.21101829409599304,0.9399999976158142,0.22886650264263153,0.9340000152587891,0.001
0.1939617544412613,0.9380000233650208,0.22877398133277893,0.9340000152587891,0.001
0.19762028753757477,0.9380000233650208,0.2287791669368744,0.9340000152587891,0.001
0.21405580639839172,0.9380000233650208,0.22872580587863922,0.9340000152587891,0.001
0.2094334065914154,0.9399999976158142,0.22870153188705444,0.9340000152587891,0.001
0.20337483286857605,0.9419999718666077,0.2286849021911621,0.9340000152587891,0.001
0.21273179352283478,0.9380000233650208,0.2285897582769394,0.9340000152587891,0.001
0.2120746225118637,0.9399999976158142,0.2285732626914978,0.9340000152587891,0.001
0.21019931137561798,0.9380000233650208,0.2284998893737793,0.9340000152587891,0.001
0.2105211317539215,0.9359999895095825,0.22841960191726685,0.9342222213745117,0.001
0.2057209014892578,0.9399999976158142,0.22843798995018005,0.9342222213745117,0.001
0.20251929759979248,0.9300000071525574,0.2284526377916336,0.9340000152587891,0.001
0.21819910407066345,0.9399999976158142,0.22841335833072662,0.9342222213745117,0.001
0.2121104896068573,0.9359999895095825,0.2283470630645752,0.9344444274902344,0.001
0.21294227242469788,0.9399999976158142,0.22834287583827972,0.9344444274902344,0.001
0.19297455251216888,0.9480000138282776,0.22830460965633392,0.9344444274902344,0.001
0.2135351002216339,0.9419999718666077,0.22829467058181763,0.9344444274902344,0.001
0.19243286550045013,0.9380000233650208,0.2283559888601303,0.9344444274902344,0.001
0.21811681985855103,0.9319999814033508,0.22831036150455475,0.9344444274902344,0.001
0.19861570000648499,0.9419999718666077,0.22825422883033752,0.9346666932106018,0.001
0.2092256397008896,0.9440000057220459,0.2282356470823288,0.9346666932106018,0.001
0.21363404393196106,0.9399999976158142,0.22820621728897095,0.9346666932106018,0.001
0.21151778101921082,0.9380000233650208,0.2281949669122696,0.9346666932106018,0.001
0.20935025811195374,0.9440000057220459,0.22820843756198883,0.9346666932106018,0.001
0.2160528600215912,0.9319999814033508,0.22807492315769196,0.9346666932106018,0.001
0.21711012721061707,0.9380000233650208,0.22795917093753815,0.9348888993263245,0.001
0.21413356065750122,0.9319999814033508,0.2279239147901535,0.9348888993263245,0.001
0.21466578543186188,0.9459999799728394,0.22789810597896576,0.9348888993263245,0.001
0.20235402882099152,0.9340000152587891,0.22788883745670319,0.9348888993263245,0.001
0.20753668248653412,0.9419999718666077,0.22787465155124664,0.9348888993263245,0.001
0.20203334093093872,0.9440000057220459,0.2278255969285965,0.9348888993263245,0.001
0.22070327401161194,0.9300000071525574,0.2277892529964447,0.9348888993263245,0.001
0.21264497935771942,0.9380000233650208,0.22777801752090454,0.9348888993263245,0.001
0.20661231875419617,0.9399999976158142,0.22774498164653778,0.9348888993263245,0.001
0.20804958045482635,0.9440000057220459,0.22770613431930542,0.9348888993263245,0.001
0.20641811192035675,0.9419999718666077,0.2277434915304184,0.9348888993263245,0.001
0.21162326633930206,0.9340000152587891,0.2277037799358368,0.9348888993263245,0.001
0.20317986607551575,0.9419999718666077,0.22770868241786957,0.9348888993263245,0.001
0.20139971375465393,0.9419999718666077,0.22764965891838074,0.9348888993263245,0.001
0.20408327877521515,0.9419999718666077,0.227581188082695,0.9348888993263245,0.001
0.21248871088027954,0.9359999895095825,0.2276204228401184,0.9348888993263245,0.001
0.21011191606521606,0.9440000057220459,0.22752857208251953,0.9348888993263245,0.001
0.21851538121700287,0.9359999895095825,0.22747017443180084,0.9348888993263245,0.001
0.21180561184883118,0.9399999976158142,0.22746452689170837,0.9348888993263245,0.001
0.21522514522075653,0.9419999718666077,0.2274804413318634,0.9348888993263245,0.001
0.21202926337718964,0.9359999895095825,0.22746172547340393,0.9348888993263245,0.001
0.21360376477241516,0.9359999895095825,0.2274143397808075,0.9348888993263245,0.001
0.19865012168884277,0.9399999976158142,0.2274426370859146,0.9348888993263245,0.001
0.20207397639751434,0.9359999895095825,0.2273942530155182,0.9348888993263245,0.001
0.20612961053848267,0.9459999799728394,0.2273481786251068,0.9348888993263245,0.001
0.20786447823047638,0.9399999976158142,0.22729751467704773,0.9348888993263245,0.001
0.200777068734169,0.9359999895095825,0.22722561657428741,0.9348888993263245,0.001
0.2008570432662964,0.9380000233650208,0.22715891897678375,0.9348888993263245,0.001
0.20920969545841217,0.9440000057220459,0.2271832823753357,0.9348888993263245,0.001
0.20450907945632935,0.9419999718666077,0.22716568410396576,0.9348888993263245,0.001
0.20807889103889465,0.9399999976158142,0.22712786495685577,0.9348888993263245,0.001
0.20325005054473877,0.9399999976158142,0.22716325521469116,0.9348888993263245,0.001
0.20565463602542877,0.9380000233650208,0.22716115415096283,0.9348888993263245,0.001
0.20855087041854858,0.9340000152587891,0.22715327143669128,0.9348888993263245,0.001
0.20691964030265808,0.9399999976158142,0.2271091639995575,0.9348888993263245,0.001
0.22258445620536804,0.9359999895095825,0.22702713310718536,0.9348888993263245,0.001
0.2099420726299286,0.9419999718666077,0.22695164382457733,0.9348888993263245,0.001
0.19635336101055145,0.9399999976158142,0.2268906682729721,0.9348888993263245,0.001
0.20659993588924408,0.9380000233650208,0.22687673568725586,0.9348888993263245,0.001
0.2005191296339035,0.9399999976158142,0.2268712967634201,0.9348888993263245,0.001
0.20820622146129608,0.9359999895095825,0.2268815040588379,0.9348888993263245,0.001
0.2234475314617157,0.9340000152587891,0.22684471309185028,0.9348888993263245,0.001
0.20603936910629272,0.9440000057220459,0.22675368189811707,0.9348888993263245,0.001
0.20236268639564514,0.9419999718666077,0.2266911268234253,0.9348888993263245,0.001
0.19303835928440094,0.9380000233650208,0.22665812075138092,0.9348888993263245,0.001
0.19381123781204224,0.9399999976158142,0.22666244208812714,0.9348888993263245,0.001
0.2151375263929367,0.9419999718666077,0.22666329145431519,0.9348888993263245,0.001
0.20968841016292572,0.9419999718666077,0.22663947939872742,0.9348888993263245,0.001
0.20918498933315277,0.9399999976158142,0.2265867441892624,0.9348888993263245,0.001
0.21539419889450073,0.9380000233650208,0.22658753395080566,0.9348888993263245,0.001
0.20074747502803802,0.9380000233650208,0.2265615165233612,0.9348888993263245,0.001
0.21067781746387482,0.9380000233650208,0.22649554908275604,0.9348888993263245,0.001
0.19596078991889954,0.9399999976158142,0.22646670043468475,0.9348888993263245,0.001
0.2219342589378357,0.9399999976158142,0.22640852630138397,0.9348888993263245,0.001
0.20772364735603333,0.9359999895095825,0.22638602554798126,0.9348888993263245,0.001
0.21881715953350067,0.9359999895095825,0.22637321054935455,0.9348888993263245,0.001
0.20943614840507507,0.9459999799728394,0.2263363003730774,0.9348888993263245,0.001
0.20925608277320862,0.9380000233650208,0.22632989287376404,0.9348888993263245,0.001
0.20739467442035675,0.9419999718666077,0.22631756961345673,0.9348888993263245,0.001
0.20582503080368042,0.9359999895095825,0.2262505143880844,0.9348888993263245,0.001
0.2042272537946701,0.9380000233650208,0.2262638509273529,0.9348888993263245,0.001
0.19189220666885376,0.9399999976158142,0.22624441981315613,0.9348888993263245,0.001
0.17967098951339722,0.9459999799728394,0.22620272636413574,0.9348888993263245,0.001
0.20730456709861755,0.9399999976158142,0.22614704072475433,0.9348888993263245,0.001
0.20273534953594208,0.9440000057220459,0.2261352688074112,0.9348888993263245,0.001
0.21176615357398987,0.9380000233650208,0.2261069416999817,0.9348888993263245,0.001
0.2043505609035492,0.9399999976158142,0.22604280710220337,0.9348888993263245,0.001
0.20182448625564575,0.9419999718666077,0.22598043084144592,0.9348888993263245,0.001
0.2003004550933838,0.9399999976158142,0.22597283124923706,0.9348888993263245,0.001
0.20536616444587708,0.9459999799728394,0.22592662274837494,0.9348888993263245,0.001
0.1986515372991562,0.9419999718666077,0.22584648430347443,0.9348888993263245,0.001
0.20992682874202728,0.9440000057220459,0.2258176952600479,0.9348888993263245,0.001
0.20930229127407074,0.9399999976158142,0.22580401599407196,0.9348888993263245,0.001
0.19800396263599396,0.9380000233650208,0.22579562664031982,0.9348888993263245,0.001
0.20399874448776245,0.9399999976158142,0.22577205300331116,0.9348888993263245,0.001
0.20214806497097015,0.9440000057220459,0.2257072776556015,0.9348888993263245,0.001
0.18506871163845062,0.9419999718666077,0.22570917010307312,0.9348888993263245,0.001
0.19330869615077972,0.9380000233650208,0.22573256492614746,0.9348888993263245,0.001
0.21248243749141693,0.9419999718666077,0.22574055194854736,0.9348888993263245,0.001
0.20382067561149597,0.9419999718666077,0.22572168707847595,0.9348888993263245,0.001
0.20046232640743256,0.9419999718666077,0.22570264339447021,0.9348888993263245,0.001
0.21752583980560303,0.9440000057220459,0.2256930023431778,0.9348888993263245,0.001
0.20088446140289307,0.9399999976158142,0.22571896016597748,0.9348888993263245,0.001
0.20396851003170013,0.9419999718666077,0.225727841258049,0.9348888993263245,0.001
0.2007298618555069,0.9440000057220459,0.22566364705562592,0.9348888993263245,0.001
0.19019393622875214,0.9399999976158142,0.22560904920101166,0.9346666932106018,0.001
0.21699512004852295,0.9359999895095825,0.2255338579416275,0.9346666932106018,0.001
0.19096817076206207,0.9440000057220459,0.22547423839569092,0.9346666932106018,0.001
0.22036553919315338,0.9380000233650208,0.22540709376335144,0.9346666932106018,0.001
0.2076171636581421,0.9359999895095825,0.225393608212471,0.9346666932106018,0.001
0.19924680888652802,0.9359999895095825,0.2253255695104599,0.9348888993263245,0.001
0.20244090259075165,0.9419999718666077,0.22531573474407196,0.9348888993263245,0.001
0.21073830127716064,0.9340000152587891,0.22528649866580963,0.9348888993263245,0.001
0.20477093756198883,0.9399999976158142,0.22525259852409363,0.9348888993263245,0.001
0.2091778963804245,0.9440000057220459,0.2253105789422989,0.9348888993263245,0.001
0.20378729701042175,0.9440000057220459,0.22523421049118042,0.9348888993263245,0.001
0.1997915804386139,0.9359999895095825,0.22526803612709045,0.9348888993263245,0.001
0.20258688926696777,0.9419999718666077,0.22523310780525208,0.9348888993263245,0.001
0.1866452395915985,0.9399999976158142,0.22523406147956848,0.9348888993263245,0.001
0.2019563764333725,0.9440000057220459,0.22517813742160797,0.9348888993263245,0.001
0.19603601098060608,0.9419999718666077,0.22513793408870697,0.9348888993263245,0.001
0.20645053684711456,0.9440000057220459,0.22513046860694885,0.9348888993263245,0.001
0.2011582851409912,0.9459999799728394,0.22513528168201447,0.9348888993263245,0.001
0.19193774461746216,0.9440000057220459,0.22508186101913452,0.9348888993263245,0.001
0.19478937983512878,0.9419999718666077,0.2250308096408844,0.9351111054420471,0.001
0.19859395921230316,0.9440000057220459,0.2251298427581787,0.9348888993263245,0.001
0.19584494829177856,0.9380000233650208,0.22503918409347534,0.9351111054420471,0.001
0.1844424158334732,0.9419999718666077,0.2250002920627594,0.9351111054420471,0.001
0.20081037282943726,0.9399999976158142,0.22496294975280762,0.9351111054420471,0.001
0.19885195791721344,0.9399999976158142,0.22489280998706818,0.9351111054420471,0.001
0.19432398676872253,0.9399999976158142,0.22486081719398499,0.9351111054420471,0.001
0.2064487189054489,0.9319999814033508,0.22484305500984192,0.9351111054420471,0.001
0.19356109201908112,0.9440000057220459,0.22486935555934906,0.9351111054420471,0.001
0.20365144312381744,0.9419999718666077,0.2248348742723465,0.9351111054420471,0.001
0.19598141312599182,0.9380000233650208,0.2247583121061325,0.9351111054420471,0.001
0.2052951604127884,0.9419999718666077,0.2246720939874649,0.9351111054420471,0.001
0.20204010605812073,0.9359999895095825,0.22466020286083221,0.9351111054420471,0.001
0.2058236449956894,0.9319999814033508,0.2246236354112625,0.9351111054420471,0.001
0.20468364655971527,0.9419999718666077,0.22462864220142365,0.9351111054420471,0.001
0.19667938351631165,0.9399999976158142,0.22458013892173767,0.9351111054420471,0.001
0.20185711979866028,0.9399999976158142,0.22454804182052612,0.9351111054420471,0.001
0.19338174164295197,0.9380000233650208,0.2244923710823059,0.9351111054420471,0.001
0.1967650204896927,0.9419999718666077,0.22445400059223175,0.9351111054420471,0.001
0.20621253550052643,0.9380000233650208,0.2244630604982376,0.9351111054420471,0.001
0.1838192343711853,0.9440000057220459,0.2244979441165924,0.9351111054420471,0.001
0.19085080921649933,0.9419999718666077,0.22452542185783386,0.9351111054420471,0.001
0.19862082600593567,0.9419999718666077,0.22451996803283691,0.9351111054420471,0.001
0.20510298013687134,0.9340000152587891,0.22446143627166748,0.9351111054420471,0.001
0.18910400569438934,0.9459999799728394,0.2244151532649994,0.9351111054420471,0.001
0.2004876583814621,0.9440000057220459,0.22442121803760529,0.9353333115577698,0.001
0.19551444053649902,0.9459999799728394,0.22438660264015198,0.9353333115577698,0.001
0.21249312162399292,0.9380000233650208,0.2242792248725891,0.9353333115577698,0.001
0.1901209056377411,0.9440000057220459,0.22422482073307037,0.9353333115577698,0.001
0.2024790495634079,0.9459999799728394,0.2242262065410614,0.9353333115577698,0.001
0.1984715759754181,0.9419999718666077,0.22426889836788177,0.9353333115577698,0.001
0.20503410696983337,0.9399999976158142,0.2242359220981598,0.9353333115577698,0.001
0.1968821883201599,0.9440000057220459,0.2242211103439331,0.9353333115577698,0.001
0.20812368392944336,0.9399999976158142,0.22420799732208252,0.9353333115577698,0.001
0.1942296326160431,0.9440000057220459,0.2241635024547577,0.9353333115577698,0.001
0.21201375126838684,0.9399999976158142,0.22412799298763275,0.9353333115577698,0.001
0.19700565934181213,0.9440000057220459,0.22406454384326935,0.9353333115577698,0.001
0.19923587143421173,0.9399999976158142,0.22405089437961578,0.9353333115577698,0.001
0.20715400576591492,0.9399999976158142,0.22402380406856537,0.9353333115577698,0.001
0.2004169225692749,0.9440000057220459,0.2240300476551056,0.9353333115577698,0.001
0.20643287897109985,0.9380000233650208,0.22395768761634827,0.9353333115577698,0.001
0.195194274187088,0.9399999976158142,0.22394229471683502,0.9353333115577698,0.001
0.20798732340335846,0.9340000152587891,0.22389137744903564,0.9353333115577698,0.001
0.20131947100162506,0.9399999976158142,0.2238619178533554,0.9353333115577698,0.001
0.2054756134748459,0.9380000233650208,0.2239058017730713,0.9353333115577698,0.001
0.20163775980472565,0.9399999976158142,0.2238059639930725,0.9353333115577698,0.001
0.20268383622169495,0.9480000138282776,0.22378124296665192,0.9353333115577698,0.001
0.2126045674085617,0.9359999895095825,0.22376428544521332,0.9353333115577698,0.001
0.1888429969549179,0.9419999718666077,0.2237308919429779,0.9353333115577698,0.001
0.19131234288215637,0.9440000057220459,0.22373290359973907,0.9353333115577698,0.001
0.20479148626327515,0.9319999814033508,0.22373971343040466,0.9353333115577698,0.001
0.21027034521102905,0.9399999976158142,0.2237502932548523,0.9353333115577698,0.001
0.18961134552955627,0.9419999718666077,0.2237563133239746,0.9353333115577698,0.001
0.20354604721069336,0.9399999976158142,0.22379496693611145,0.9353333115577698,0.001
0.20016616582870483,0.9399999976158142,0.2237958461046219,0.9353333115577698,0.001
0.18727783858776093,0.9480000138282776,0.22378289699554443,0.9353333115577698,0.001
0.1976098120212555,0.9399999976158142,0.22375662624835968,0.9353333115577698,0.001
0.19765394926071167,0.9399999976158142,0.22365956008434296,0.9353333115577698,0.001
0.20348909497261047,0.9459999799728394,0.22366054356098175,0.9353333115577698,0.001
0.20149767398834229,0.9459999799728394,0.22364792227745056,0.9353333115577698,0.001
0.1878119260072708,0.9399999976158142,0.22357700765132904,0.9353333115577698,0.001
0.20092447102069855,0.9380000233650208,0.2235819697380066,0.9353333115577698,0.001
0.19569642841815948,0.9399999976158142,0.22352910041809082,0.9353333115577698,0.001
0.19294339418411255,0.9399999976158142,0.22354964911937714,0.9353333115577698,0.001
0.1903616487979889,0.9440000057220459,0.22353745996952057,0.9353333115577698,0.001
0.19243191182613373,0.9459999799728394,0.22353224456310272,0.9353333115577698,0.001
0.19549605250358582,0.9419999718666077,0.2234838902950287,0.9353333115577698,0.001
0.18529577553272247,0.9440000057220459,0.22345346212387085,0.9353333115577698,0.001
0.20292654633522034,0.9419999718666077,0.2234134078025818,0.9353333115577698,0.001
0.18491549789905548,0.9459999799728394,0.22340400516986847,0.9353333115577698,0.001
0.18479202687740326,0.9440000057220459,0.22335943579673767,0.9353333115577698,0.001
0.19399228692054749,0.9440000057220459,0.22333253920078278,0.9353333115577698,0.001
0.1925862431526184,0.9459999799728394,0.22330911457538605,0.9353333115577698,0.001
0.18975690007209778,0.9419999718666077,0.2233233004808426,0.9353333115577698,0.001
0.1917867213487625,0.9399999976158142,0.22334076464176178,0.9353333115577698,0.001
0.18855898082256317,0.9359999895095825,0.2233513742685318,0.9353333115577698,0.001
0.21175894141197205,0.9359999895095825,0.22335492074489594,0.9353333115577698,0.001
0.20551151037216187,0.9419999718666077,0.22333797812461853,0.9353333115577698,0.001
0.19825492799282074,0.9399999976158142,0.22329583764076233,0.9351111054420471,0.001
0.20357246696949005,0.9419999718666077,0.22325944900512695,0.9351111054420471,0.001
0.1957005262374878,0.9440000057220459,0.22325094044208527,0.9351111054420471,0.001
0.19074654579162598,0.9459999799728394,0.2232750654220581,0.9351111054420471,0.001
0.20135174691677094,0.9440000057220459,0.22329403460025787,0.9351111054420471,0.001
0.19537866115570068,0.9440000057220459,0.22331532835960388,0.9351111054420471,0.001
0.20402541756629944,0.9340000152587891,0.22331635653972626,0.9351111054420471,0.001
0.19537222385406494,0.9459999799728394,0.2232387214899063,0.9351111054420471,0.001
0.19557562470436096,0.9419999718666077,0.22315713763237,0.9351111054420471,0.001
0.1938796490430832,0.9419999718666077,0.22312307357788086,0.9351111054420471,0.001
0.20471902191638947,0.9380000233650208,0.2230646163225174,0.9351111054420471,0.001
0.18434736132621765,0.9399999976158142,0.2229856699705124,0.9351111054420471,0.001
0.19349443912506104,0.9419999718666077,0.22295379638671875,0.9351111054420471,0.001
0.20278669893741608,0.9419999718666077,0.22290749847888947,0.9353333115577698,0.001
0.20091399550437927,0.9440000057220459,0.22290146350860596,0.9353333115577698,0.001
0.18143297731876373,0.9399999976158142,0.22294196486473083,0.9353333115577698,0.001
0.1825825572013855,0.9480000138282776,0.22290988266468048,0.9353333115577698,0.001
0.20513179898262024,0.9399999976158142,0.22287613153457642,0.9355555772781372,0.001
0.21154706180095673,0.9419999718666077,0.22278191149234772,0.9355555772781372,0.001
0.20042510330677032,0.9459999799728394,0.22278836369514465,0.9355555772781372,0.001
0.19387127459049225,0.9419999718666077,0.2227708399295807,0.9355555772781372,0.001
0.19703537225723267,0.9459999799728394,0.22273841500282288,0.9355555772781372,0.001
0.20039689540863037,0.9440000057220459,0.2227170616388321,0.9355555772781372,0.001
0.18757569789886475,0.9440000057220459,0.22272875905036926,0.9355555772781372,0.001
0.1816873997449875,0.9399999976158142,0.22270216047763824,0.9355555772781372,0.001
0.20200690627098083,0.9419999718666077,0.22261255979537964,0.9355555772781372,0.001
0.20627263188362122,0.9440000057220459,0.2225925773382187,0.9355555772781372,0.001
0.19447112083435059,0.9399999976158142,0.22258655726909637,0.9357777833938599,0.001
0.18832118809223175,0.949999988079071,0.22258856892585754,0.9355555772781372,0.001
0.1956787407398224,0.9459999799728394,0.22256600856781006,0.9355555772781372,0.001
0.18423378467559814,0.9419999718666077,0.22254535555839539,0.9355555772781372,0.001
0.18396154046058655,0.9459999799728394,0.22255417704582214,0.9357777833938599,0.001
0.20437434315681458,0.9440000057220459,0.2225484997034073,0.9357777833938599,0.001
0.18241077661514282,0.9380000233650208,0.22254230082035065,0.9359999895095825,0.001
0.18854881823062897,0.9440000057220459,0.22252047061920166,0.9359999895095825,0.001
0.19247545301914215,0.9440000057220459,0.22249455749988556,0.9359999895095825,0.001
0.19351328909397125,0.9419999718666077,0.22246378660202026,0.9359999895095825,0.001
0.19148805737495422,0.9419999718666077,0.22239458560943604,0.9362221956253052,0.001
0.19327759742736816,0.9419999718666077,0.22231407463550568,0.9362221956253052,0.001
0.1945941299200058,0.9419999718666077,0.22230415046215057,0.9362221956253052,0.001
0.18483564257621765,0.9480000138282776,0.22229331731796265,0.9362221956253052,0.001
0.193825364112854,0.9459999799728394,0.22225934267044067,0.9362221956253052,0.001
0.2017640620470047,0.9419999718666077,0.22224539518356323,0.9362221956253052,0.001
0.19680997729301453,0.9440000057220459,0.2222106009721756,0.9362221956253052,0.001
0.19556768238544464,0.9459999799728394,0.22220909595489502,0.9362221956253052,0.001
0.18498404324054718,0.9459999799728394,0.2222665697336197,0.9362221956253052,0.001
0.19209372997283936,0.9380000233650208,0.22227025032043457,0.9362221956253052,0.001
0.18139328062534332,0.9419999718666077,0.22223544120788574,0.9362221956253052,0.001
0.19259919226169586,0.9440000057220459,0.2221812605857849,0.9362221956253052,0.001
0.18884460628032684,0.9399999976158142,0.22216089069843292,0.9362221956253052,0.001
0.1952667534351349,0.9399999976158142,0.22217857837677002,0.9362221956253052,0.001
0.20758110284805298,0.9380000233650208,0.22214628756046295,0.9362221956253052,0.001
0.18957532942295074,0.9440000057220459,0.2221049815416336,0.9362221956253052,0.001
0.1948600709438324,0.9399999976158142,0.22206127643585205,0.9362221956253052,0.001
0.18741440773010254,0.9399999976158142,0.22208917140960693,0.9362221956253052,0.001
0.1907797008752823,0.9399999976158142,0.22208108007907867,0.9362221956253052,0.001
0.20860889554023743,0.9359999895095825,0.22206063568592072,0.9362221956253052,0.001
0.19846703112125397,0.9480000138282776,0.222054123878479,0.9362221956253052,0.001
0.1882219761610031,0.9440000057220459,0.22200898826122284,0.9362221956253052,0.001
0.193669393658638,0.9399999976158142,0.222023144364357,0.9362221956253052,0.001
0.18011336028575897,0.9520000219345093,0.22202718257904053,0.9362221956253052,0.001
0.1834983080625534,0.9399999976158142,0.22200575470924377,0.9362221956253052,0.001
0.18253980576992035,0.9480000138282776,0.2220338135957718,0.9362221956253052,0.001
0.17952685058116913,0.9419999718666077,0.22205068171024323,0.9362221956253052,0.001
0.19641080498695374,0.9419999718666077,0.2220788300037384,0.9362221956253052,0.001
0.20000356435775757,0.9419999718666077,0.22204294800758362,0.9362221956253052,0.001
0.2067108154296875,0.9440000057220459,0.22205238044261932,0.9362221956253052,0.001
0.18874339759349823,0.9459999799728394,0.22197556495666504,0.9362221956253052,0.001
0.184070885181427,0.9480000138282776,0.2219056338071823,0.9362221956253052,0.001
0.19639496505260468,0.9380000233650208,0.22190415859222412,0.9362221956253052,0.001
0.20332390069961548,0.9399999976158142,0.22192667424678802,0.9362221956253052,0.001
0.20622023940086365,0.9419999718666077,0.22192591428756714,0.9362221956253052,0.001
0.2016870230436325,0.9359999895095825,0.221945658326149,0.9362221956253052,0.001
0.19070179760456085,0.9419999718666077,0.2218964397907257,0.9362221956253052,0.001
0.19160382449626923,0.9480000138282776,0.22185233235359192,0.9362221956253052,0.001
0.18094515800476074,0.9419999718666077,0.22180195152759552,0.9362221956253052,0.001
0.18474049866199493,0.9419999718666077,0.2217528522014618,0.9362221956253052,0.001
0.19361624121665955,0.9399999976158142,0.2217639982700348,0.9362221956253052,0.001
0.19647091627120972,0.9380000233650208,0.22176125645637512,0.9364444613456726,0.001
0.18358050286769867,0.9480000138282776,0.22169435024261475,0.9364444613456726,0.001
0.1895972043275833,0.9419999718666077,0.2216794639825821,0.9364444613456726,0.001
0.18680153787136078,0.9459999799728394,0.2217036634683609,0.9364444613456726,0.001
0.18205177783966064,0.9419999718666077,0.22167161107063293,0.9364444613456726,0.001
0.19076292216777802,0.9399999976158142,0.2216612696647644,0.9364444613456726,0.001
0.19641128182411194,0.9459999799728394,0.2216859608888626,0.9364444613456726,0.001
0.2055789828300476,0.9480000138282776,0.22168278694152832,0.9364444613456726,0.001
0.19747745990753174,0.9459999799728394,0.2216196358203888,0.9364444613456726,0.001
0.19731861352920532,0.949999988079071,0.2215668112039566,0.9364444613456726,0.001
0.18814921379089355,0.9399999976158142,0.221552774310112,0.9364444613456726,0.001
0.18323475122451782,0.9399999976158142,0.22152402997016907,0.9364444613456726,0.001
0.18687130510807037,0.9419999718666077,0.22151696681976318,0.9364444613456726,0.001
0.1843508780002594,0.9359999895095825,0.2214333862066269,0.9364444613456726,0.001
0.18864616751670837,0.949999988079071,0.22141654789447784,0.9364444613456726,0.001
0.18840090930461884,0.9440000057220459,0.2214258313179016,0.9364444613456726,0.001
0.18822945654392242,0.9419999718666077,0.22140491008758545,0.9364444613456726,0.001
0.1926192194223404,0.9459999799728394,0.2213941514492035,0.9364444613456726,0.001
0.18175248801708221,0.9480000138282776,0.22136256098747253,0.9364444613456726,0.001
0.1814379245042801,0.9480000138282776,0.22133682668209076,0.9364444613456726,0.001
0.17084848880767822,0.9480000138282776,0.22132755815982819,0.9364444613456726,0.001
0.1907142549753189,0.9359999895095825,0.22130334377288818,0.9364444613456726,0.001
0.19527779519557953,0.9440000057220459,0.22129137814044952,0.9364444613456726,0.001
0.20582430064678192,0.9340000152587891,0.2212594896554947,0.9364444613456726,0.001
0.19071027636528015,0.9440000057220459,0.22125574946403503,0.9364444613456726,0.001
0.18434923887252808,0.9419999718666077,0.22128508985042572,0.9364444613456726,0.001
0.19681869447231293,0.9419999718666077,0.2212679088115692,0.9364444613456726,0.001
0.18251672387123108,0.9419999718666077,0.22123560309410095,0.9364444613456726,0.001
0.20126715302467346,0.9459999799728394,0.22124378383159637,0.9364444613456726,0.001
0.19402624666690826,0.9399999976158142,0.22120702266693115,0.9364444613456726,0.001
0.18423286080360413,0.9459999799728394,0.22119075059890747,0.9364444613456726,0.001
0.18768168985843658,0.9419999718666077,0.22119535505771637,0.9364444613456726,0.001
0.19401821494102478,0.9399999976158142,0.22115540504455566,0.9364444613456726,0.001
0.19036728143692017,0.9380000233650208,0.2211654633283615,0.9364444613456726,0.001
0.17988437414169312,0.9459999799728394,0.2211836278438568,0.9364444613456726,0.001
0.20182518661022186,0.9399999976158142,0.2211560755968094,0.9364444613456726,0.001
0.19504854083061218,0.9440000057220459,0.2211289405822754,0.9364444613456726,0.001
0.19573701918125153,0.9380000233650208,0.22109737992286682,0.9364444613456726,0.001
0.1812937706708908,0.9480000138282776,0.22104531526565552,0.9364444613456726,0.001
0.19669508934020996,0.9399999976158142,0.22102198004722595,0.9364444613456726,0.001
0.19590331614017487,0.9419999718666077,0.22095441818237305,0.9364444613456726,0.001
0.18554161489009857,0.9480000138282776,0.22093099355697632,0.9364444613456726,0.001
0.19504816830158234,0.949999988079071,0.22093534469604492,0.9364444613456726,0.001
0.17766603827476501,0.9480000138282776,0.22090977430343628,0.9364444613456726,0.001
0.19280339777469635,0.949999988079071,0.22088445723056793,0.9364444613456726,0.001
0.1782582551240921,0.9419999718666077,0.22082774341106415,0.9364444613456726,0.001
0.1875971555709839,0.9459999799728394,0.22076135873794556,0.9364444613456726,0.001
0.19807448983192444,0.9359999895095825,0.2207595854997635,0.9364444613456726,0.001
0.18284811079502106,0.9440000057220459,0.22075024247169495,0.9364444613456726,0.001
0.18738466501235962,0.9459999799728394,0.220709428191185,0.9364444613456726,0.001
0.19376137852668762,0.9440000057220459,0.2206835150718689,0.9364444613456726,0.001
0.18337665498256683,0.9480000138282776,0.22069038450717926,0.9364444613456726,0.001
0.19805380702018738,0.9440000057220459,0.22068820893764496,0.9364444613456726,0.001
0.18694531917572021,0.9480000138282776,0.2206784188747406,0.9364444613456726,0.001
0.2099159061908722,0.9419999718666077,0.22061583399772644,0.9368888735771179,0.001
0.195651113986969,0.9399999976158142,0.22054515779018402,0.9368888735771179,0.001
0.1934356838464737,0.9480000138282776,0.22054976224899292,0.9368888735771179,0.001
0.18683451414108276,0.9459999799728394,0.2206052541732788,0.9368888735771179,0.001
0.19867022335529327,0.9419999718666077,0.2205730527639389,0.9368888735771179,0.001
0.18285082280635834,0.9419999718666077,0.22052882611751556,0.9368888735771179,0.001
0.1949828565120697,0.9399999976158142,0.22049885988235474,0.9368888735771179,0.001
0.1783493161201477,0.949999988079071,0.22048422694206238,0.9368888735771179,0.001
0.18951357901096344,0.9399999976158142,0.22043941915035248,0.9368888735771179,0.001
0.18487586081027985,0.9480000138282776,0.2204468697309494,0.9368888735771179,0.001
0.19578705728054047,0.9440000057220459,0.22045113146305084,0.9368888735771179,0.001
0.18958020210266113,0.949999988079071,0.22047144174575806,0.9368888735771179,0.001
0.19086837768554688,0.9459999799728394,0.22045640647411346,0.9368888735771179,0.001
0.16211579740047455,0.949999988079071,0.22047585248947144,0.9368888735771179,0.001
0.19724057614803314,0.9380000233650208,0.2204446643590927,0.9371111392974854,0.001
0.19263605773448944,0.949999988079071,0.22039680182933807,0.9371111392974854,0.001
0.1913827806711197,0.9459999799728394,0.22034664452075958,0.9371111392974854,0.001
0.19969014823436737,0.9380000233650208,0.22036056220531464,0.9371111392974854,0.001
0.18983256816864014,0.9380000233650208,0.22035562992095947,0.9371111392974854,0.001
0.17969805002212524,0.9459999799728394,0.22031612694263458,0.9371111392974854,0.001
0.18843036890029907,0.9399999976158142,0.22026792168617249,0.937333345413208,0.001
0.17720453441143036,0.9480000138282776,0.22033819556236267,0.937333345413208,0.001
0.1921357363462448,0.9399999976158142,0.2203052043914795,0.937333345413208,0.001
0.18393521010875702,0.9480000138282776,0.2202896773815155,0.937333345413208,0.001
0.18449193239212036,0.9480000138282776,0.22030967473983765,0.937333345413208,0.001
0.19074921309947968,0.9440000057220459,0.22024361789226532,0.937333345413208,0.001
0.19120557606220245,0.9480000138282776,0.22021810710430145,0.9375555515289307,0.001
0.19381850957870483,0.9419999718666077,0.2201293259859085,0.9375555515289307,0.001
0.18654434382915497,0.949999988079071,0.22012877464294434,0.9375555515289307,0.001
0.19439664483070374,0.9440000057220459,0.22011104226112366,0.9375555515289307,0.001
0.18086165189743042,0.9459999799728394,0.2200222611427307,0.9375555515289307,0.001
0.18153730034828186,0.9480000138282776,0.2200114130973816,0.9375555515289307,0.001
0.19203872978687286,0.9480000138282776,0.21996426582336426,0.9375555515289307,0.001
0.17635396122932434,0.9480000138282776,0.21996180713176727,0.9375555515289307,0.001
0.17394861578941345,0.9419999718666077,0.2199726700782776,0.9375555515289307,0.001
0.18777164816856384,0.9399999976158142,0.21994079649448395,0.9375555515289307,0.001
0.20426397025585175,0.9480000138282776,0.21996669471263885,0.9375555515289307,0.001
0.18361151218414307,0.9480000138282776,0.21994735300540924,0.9375555515289307,0.001
0.19701525568962097,0.9459999799728394,0.21994787454605103,0.9375555515289307,0.001
0.19231529533863068,0.9440000057220459,0.21994315087795258,0.9375555515289307,0.001
0.1885356605052948,0.9399999976158142,0.21992315351963043,0.9375555515289307,0.001
0.20152625441551208,0.9440000057220459,0.21987347304821014,0.9375555515289307,0.001
0.20065747201442719,0.9459999799728394,0.21982203423976898,0.9375555515289307,0.001
0.17888210713863373,0.9480000138282776,0.219819113612175,0.9375555515289307,0.001
0.18151181936264038,0.9480000138282776,0.21978352963924408,0.9375555515289307,0.001
0.1821068823337555,0.949999988079071,0.21972529590129852,0.9375555515289307,0.001
0.1907704919576645,0.9419999718666077,0.21974799036979675,0.9375555515289307,0.001
0.18116100132465363,0.9480000138282776,0.2197207659482956,0.9375555515289307,0.001
0.17102205753326416,0.9440000057220459,0.21971763670444489,0.9375555515289307,0.001
0.18234048783779144,0.9459999799728394,0.21970400214195251,0.9377777576446533,0.001
0.19994480907917023,0.9459999799728394,0.21968606114387512,0.9377777576446533,0.001
0.19332334399223328,0.9459999799728394,0.2197057008743286,0.9377777576446533,0.001
0.18158863484859467,0.9440000057220459,0.21961744129657745,0.9377777576446533,0.001
0.1981254518032074,0.9480000138282776,0.21962305903434753,0.9377777576446533,0.001
0.18093308806419373,0.9440000057220459,0.21963705122470856,0.9377777576446533,0.001
0.19088129699230194,0.9480000138282776,0.21967241168022156,0.9377777576446533,0.001
0.19664783775806427,0.9459999799728394,0.21966621279716492,0.9377777576446533,0.001
0.17761467397212982,0.9459999799728394,0.21967028081417084,0.9377777576446533,0.001
0.18259502947330475,0.9440000057220459,0.21962732076644897,0.9377777576446533,0.001
0.18369421362876892,0.9440000057220459,0.21958956122398376,0.9377777576446533,0.001
0.17803369462490082,0.9440000057220459,0.21951626241207123,0.9377777576446533,0.001
0.18788190186023712,0.9440000057220459,0.21950827538967133,0.9377777576446533,0.001
0.18932335078716278,0.9399999976158142,0.21950940787792206,0.9377777576446533,0.001
0.17624229192733765,0.9459999799728394,0.21948954463005066,0.9377777576446533,0.001
0.17683695256710052,0.9459999799728394,0.21949723362922668,0.9377777576446533,0.001
0.17989210784435272,0.9419999718666077,0.21944719552993774,0.9377777576446533,0.001
0.18462345004081726,0.9419999718666077,0.2194206416606903,0.9377777576446533,0.001
0.17698368430137634,0.9480000138282776,0.21936754882335663,0.9380000233650208,0.001
0.1900688111782074,0.9459999799728394,0.21931453049182892,0.9380000233650208,0.001
0.17459172010421753,0.9480000138282776,0.21931025385856628,0.9380000233650208,0.001
0.18302291631698608,0.9459999799728394,0.21934472024440765,0.9380000233650208,0.001
0.18843591213226318,0.9440000057220459,0.21931752562522888,0.9380000233650208,0.001
0.18888242542743683,0.9440000057220459,0.21925920248031616,0.9382222294807434,0.001
0.18350671231746674,0.9399999976158142,0.2192789912223816,0.9380000233650208,0.001
0.1886468082666397,0.9459999799728394,0.21923966705799103,0.9380000233650208,0.001
0.18306206166744232,0.9480000138282776,0.21924886107444763,0.9380000233650208,0.001
0.180850550532341,0.9419999718666077,0.21923023462295532,0.9380000233650208,0.001
0.19992893934249878,0.9440000057220459,0.2191987782716751,0.9380000233650208,0.001
0.17309637367725372,0.9520000219345093,0.21921733021736145,0.9380000233650208,0.001
0.18034830689430237,0.9399999976158142,0.21917864680290222,0.9380000233650208,0.001
0.17694693803787231,0.9399999976158142,0.2191777378320694,0.9380000233650208,0.001
0.16390195488929749,0.9520000219345093,0.2191772311925888,0.9380000233650208,0.001
0.18092414736747742,0.9459999799728394,0.2191491723060608,0.9382222294807434,0.001
0.19086115062236786,0.9440000057220459,0.2191234827041626,0.9380000233650208,0.001
0.18508444726467133,0.9399999976158142,0.21910817921161652,0.9382222294807434,0.001
0.17596402764320374,0.9480000138282776,0.21907025575637817,0.9384444355964661,0.001
0.17876414954662323,0.9480000138282776,0.21904583275318146,0.9384444355964661,0.001
0.18303881585597992,0.9459999799728394,0.21897676587104797,0.9384444355964661,0.001
0.18693417310714722,0.9459999799728394,0.2189246118068695,0.9384444355964661,0.001
0.17748667299747467,0.9459999799728394,0.21888339519500732,0.9384444355964661,0.001
0.18100710213184357,0.9459999799728394,0.21892209351062775,0.9384444355964661,0.001
0.18585321307182312,0.9399999976158142,0.2189050316810608,0.9384444355964661,0.001
0.17388680577278137,0.9459999799728394,0.2188926637172699,0.9384444355964661,0.001
0.18169057369232178,0.949999988079071,0.2188340574502945,0.9384444355964661,0.001
0.18352369964122772,0.9440000057220459,0.2188437432050705,0.9384444355964661,0.001
0.18610945343971252,0.9419999718666077,0.2187841534614563,0.9384444355964661,0.001
0.17943888902664185,0.9480000138282776,0.21879816055297852,0.9384444355964661,0.001
0.18681994080543518,0.9480000138282776,0.21874357759952545,0.9384444355964661,0.001
0.17845241725444794,0.9459999799728394,0.21874773502349854,0.9386666417121887,0.001
0.18941299617290497,0.9459999799728394,0.2187841832637787,0.9386666417121887,0.001
0.18230091035366058,0.9480000138282776,0.21873284876346588,0.9386666417121887,0.001
0.17430198192596436,0.9459999799728394,0.21864734590053558,0.9386666417121887,0.001
0.18087539076805115,0.9459999799728394,0.2186308056116104,0.9386666417121887,0.001
0.17758648097515106,0.949999988079071,0.21867723762989044,0.9386666417121887,0.001
0.17854605615139008,0.9480000138282776,0.21863456070423126,0.9386666417121887,0.001
0.17846930027008057,0.9459999799728394,0.21865776181221008,0.9386666417121887,0.001
0.17785726487636566,0.9419999718666077,0.21867883205413818,0.9386666417121887,0.001
0.19553618133068085,0.9440000057220459,0.21864023804664612,0.9386666417121887,0.001
0.17443984746932983,0.9480000138282776,0.2186615765094757,0.9386666417121887,0.001
0.20572857558727264,0.9440000057220459,0.21860696375370026,0.9386666417121887,0.001
0.17898064851760864,0.9520000219345093,0.21859250962734222,0.9386666417121887,0.001
0.1839074045419693,0.9539999961853027,0.21858717501163483,0.9386666417121887,0.001
0.18790408968925476,0.9480000138282776,0.21860967576503754,0.9386666417121887,0.001
0.17311027646064758,0.9419999718666077,0.2185855656862259,0.9386666417121887,0.001
0.17518222332000732,0.9459999799728394,0.21852050721645355,0.9386666417121887,0.001
0.1819673329591751,0.9480000138282776,0.2185371369123459,0.9386666417121887,0.001
0.17825239896774292,0.9459999799728394,0.2184850126504898,0.9386666417121887,0.001
0.18976441025733948,0.9440000057220459,0.21855169534683228,0.9386666417121887,0.001
0.17795804142951965,0.9480000138282776,0.2185216099023819,0.9386666417121887,0.001
0.19146430492401123,0.9419999718666077,0.21852383017539978,0.9386666417121887,0.001
0.18021975457668304,0.9399999976158142,0.21847735345363617,0.9386666417121887,0.001
0.17176967859268188,0.9440000057220459,0.21845309436321259,0.9386666417121887,0.001
0.18295666575431824,0.949999988079071,0.2184619903564453,0.9386666417121887,0.001
0.18519072234630585,0.9480000138282776,0.21847419440746307,0.9386666417121887,0.001
0.17910775542259216,0.9440000057220459,0.218491330742836,0.9386666417121887,0.001
0.1731610894203186,0.949999988079071,0.218458890914917,0.9386666417121887,0.001
0.19531874358654022,0.9459999799728394,0.2184450328350067,0.9386666417121887,0.001
0.18548591434955597,0.9480000138282776,0.21843689680099487,0.9386666417121887,0.001
0.18200312554836273,0.9440000057220459,0.21838173270225525,0.9386666417121887,0.001
0.18129031360149384,0.9459999799728394,0.21843492984771729,0.9386666417121887,0.001
0.19280149042606354,0.9459999799728394,0.2183978110551834,0.9386666417121887,0.001
0.18099042773246765,0.9520000219345093,0.21837881207466125,0.9386666417121887,0.001
0.1790097951889038,0.9440000057220459,0.21838319301605225,0.9384444355964661,0.001
0.1711040735244751,0.9440000057220459,0.21832631528377533,0.9386666417121887,0.001
0.16980381309986115,0.949999988079071,0.21830852329730988,0.9386666417121887,0.001
0.18218880891799927,0.9459999799728394,0.21828900277614594,0.9384444355964661,0.001
0.17884957790374756,0.9380000233650208,0.21832796931266785,0.9384444355964661,0.001
0.1713564097881317,0.9459999799728394,0.2183437943458557,0.9384444355964661,0.001
0.1772521585226059,0.949999988079071,0.21831071376800537,0.9384444355964661,0.001
0.1779833734035492,0.9480000138282776,0.21825803816318512,0.9384444355964661,0.001
0.17277756333351135,0.9520000219345093,0.21830692887306213,0.9384444355964661,0.001
0.17266131937503815,0.9459999799728394,0.2183227390050888,0.9384444355964661,0.001
0.17413869500160217,0.9459999799728394,0.21834304928779602,0.9384444355964661,0.001
0.17110387980937958,0.949999988079071,0.21833361685276031,0.9384444355964661,0.001
0.1866408884525299,0.9539999961853027,0.21831069886684418,0.9384444355964661,0.001
0.1749202162027359,0.949999988079071,0.2183046191930771,0.9384444355964661,0.001
0.17087894678115845,0.9559999704360962,0.21829216182231903,0.9384444355964661,0.001
0.16956308484077454,0.9480000138282776,0.2182430624961853,0.9384444355964661,0.001
0.1813085377216339,0.9440000057220459,0.21822959184646606,0.9384444355964661,0.001
0.1769782155752182,0.9459999799728394,0.21825453639030457,0.9384444355964661,0.001
0.19026188552379608,0.9459999799728394,0.21828430891036987,0.9384444355964661,0.001
0.18285375833511353,0.9520000219345093,0.21828553080558777,0.9384444355964661,0.001
0.1861983686685562,0.9440000057220459,0.21830029785633087,0.9384444355964661,0.001
0.17807242274284363,0.9459999799728394,0.21822388470172882,0.9384444355964661,0.001
0.1770489662885666,0.949999988079071,0.2181859165430069,0.9384444355964661,0.001
0.17043888568878174,0.949999988079071,0.21813522279262543,0.9384444355964661,0.001
0.17707066237926483,0.9520000219345093,0.2181152105331421,0.9384444355964661,0.001
0.18838292360305786,0.9459999799728394,0.21806775033473969,0.9384444355964661,0.001
0.17917335033416748,0.9520000219345093,0.21804605424404144,0.9384444355964661,0.001
0.17222778499126434,0.9480000138282776,0.2180105596780777,0.9384444355964661,0.001
0.17523331940174103,0.9459999799728394,0.21801960468292236,0.9384444355964661,0.001
0.1819102019071579,0.9399999976158142,0.21802949905395508,0.9384444355964661,0.001
0.17459525167942047,0.9459999799728394,0.21801991760730743,0.9384444355964661,0.001
0.16667932271957397,0.949999988079071,0.21799981594085693,0.9384444355964661,0.001
0.18053266406059265,0.949999988079071,0.2179630696773529,0.9384444355964661,0.001
0.17770852148532867,0.9459999799728394,0.2179364264011383,0.9384444355964661,0.001
0.16566821932792664,0.9539999961853027,0.2179386466741562,0.9384444355964661,0.001
0.1941629946231842,0.9480000138282776,0.21791541576385498,0.9384444355964661,0.001
0.17971433699131012,0.9419999718666077,0.21790212392807007,0.9384444355964661,0.001
0.17648768424987793,0.9480000138282776,0.2178964614868164,0.9384444355964661,0.001
0.17974723875522614,0.9520000219345093,0.21789410710334778,0.9384444355964661,0.001
0.18519003689289093,0.9419999718666077,0.21789611876010895,0.9386666417121887,0.001
0.17507977783679962,0.9419999718666077,0.2179030030965805,0.9386666417121887,0.001
0.1767619252204895,0.9440000057220459,0.2179240882396698,0.9386666417121887,0.001
0.17830611765384674,0.9459999799728394,0.21786919236183167,0.9386666417121887,0.001
0.18673507869243622,0.949999988079071,0.2179127037525177,0.9386666417121887,0.001
0.17779657244682312,0.9520000219345093,0.21787026524543762,0.9386666417121887,0.001
0.1715608835220337,0.949999988079071,0.2178305983543396,0.9386666417121887,0.001
0.18568772077560425,0.9440000057220459,0.21784140169620514,0.9388889074325562,0.001
0.17067870497703552,0.9520000219345093,0.21785616874694824,0.9388889074325562,0.001
0.17607653141021729,0.9520000219345093,0.21783564984798431,0.9388889074325562,0.001
0.17317871749401093,0.9459999799728394,0.2178773134946823,0.9388889074325562,0.001
0.17499929666519165,0.949999988079071,0.21783801913261414,0.9388889074325562,0.001
0.1823921948671341,0.9440000057220459,0.21777135133743286,0.9388889074325562,0.001
0.1840258687734604,0.9459999799728394,0.2177567481994629,0.9388889074325562,0.001
0.18811827898025513,0.9480000138282776,0.21774713695049286,0.9388889074325562,0.001
0.1773509532213211,0.9480000138282776,0.2177795022726059,0.9391111135482788,0.001
0.17970049381256104,0.9459999799728394,0.21775563061237335,0.9391111135482788,0.001
0.1688380390405655,0.9459999799728394,0.21773889660835266,0.9391111135482788,0.001
0.16379280388355255,0.9459999799728394,0.21775424480438232,0.9391111135482788,0.001
0.18948519229888916,0.9459999799728394,0.21776340901851654,0.9388889074325562,0.001
0.1677243411540985,0.9480000138282776,0.2177693396806717,0.9391111135482788,0.001
0.16483812034130096,0.9480000138282776,0.21778468787670135,0.9391111135482788,0.001
0.16535986959934235,0.9580000042915344,0.2177874892950058,0.9391111135482788,0.001
0.16944977641105652,0.9520000219345093,0.2178269922733307,0.9391111135482788,0.001
0.18804168701171875,0.9440000057220459,0.21778836846351624,0.9391111135482788,0.001
0.17034578323364258,0.9480000138282776,0.21773365139961243,0.9391111135482788,0.001
0.18112272024154663,0.949999988079071,0.21771182119846344,0.9391111135482788,0.001
0.17689555883407593,0.949999988079071,0.217698335647583,0.9391111135482788,0.001
0.17472964525222778,0.949999988079071,0.2176697552204132,0.9393333196640015,0.001
0.19242337346076965,0.9480000138282776,0.21765455603599548,0.9391111135482788,0.001
0.16832976043224335,0.9459999799728394,0.21763575077056885,0.9391111135482788,0.001
0.17614686489105225,0.9520000219345093,0.2175777107477188,0.9393333196640015,0.001
0.1810462474822998,0.9480000138282776,0.2175748497247696,0.9391111135482788,0.001
0.17753291130065918,0.9459999799728394,0.21759288012981415,0.9391111135482788,0.001
0.17367048561573029,0.949999988079071,0.21752780675888062,0.9393333196640015,0.001
0.1862928718328476,0.9419999718666077,0.2174818068742752,0.9393333196640015,0.001
0.1737152636051178,0.949999988079071,0.2174961119890213,0.9391111135482788,0.001
0.1706056147813797,0.9440000057220459,0.2175082266330719,0.9393333196640015,0.001
0.18906287848949432,0.949999988079071,0.21744436025619507,0.9393333196640015,0.001
0.18417584896087646,0.9480000138282776,0.21740661561489105,0.9393333196640015,0.001
0.18791137635707855,0.9440000057220459,0.21738310158252716,0.9393333196640015,0.001
0.19103874266147614,0.9459999799728394,0.2173476368188858,0.9393333196640015,0.001
0.17964783310890198,0.9419999718666077,0.21732918918132782,0.9393333196640015,0.001
0.19314071536064148,0.9459999799728394,0.21730531752109528,0.9393333196640015,0.001
0.16821275651454926,0.949999988079071,0.21733641624450684,0.9393333196640015,0.001
0.18145987391471863,0.9440000057220459,0.21730291843414307,0.9393333196640015,0.001
0.17772534489631653,0.949999988079071,0.21733751893043518,0.9393333196640015,0.001
0.1695738434791565,0.9520000219345093,0.21735820174217224,0.9393333196640015,0.001
0.19573959708213806,0.9419999718666077,0.2173689901828766,0.9393333196640015,0.001
0.17373676598072052,0.9480000138282776,0.2173575907945633,0.9393333196640015,0.001
0.18634821474552155,0.949999988079071,0.21737350523471832,0.9393333196640015,0.001
0.1769581437110901,0.9459999799728394,0.21735244989395142,0.9393333196640015,0.001
0.16628246009349823,0.9480000138282776,0.2173445075750351,0.9393333196640015,0.001
0.17457009851932526,0.9459999799728394,0.21732500195503235,0.9393333196640015,0.001
0.18882794678211212,0.9480000138282776,0.21726581454277039,0.9393333196640015,0.001
0.17901957035064697,0.9480000138282776,0.21727848052978516,0.9393333196640015,0.001
0.18348045647144318,0.9539999961853027,0.2172650694847107,0.9393333196640015,0.001
0.17098630964756012,0.9480000138282776,0.21732915937900543,0.9393333196640015,0.001
0.18248310685157776,0.9480000138282776,0.21728692948818207,0.9393333196640015,0.001
0.17228083312511444,0.9559999704360962,0.217304989695549,0.9393333196640015,0.001
0.1840684711933136,0.9419999718666077,0.2173452079296112,0.9391111135482788,0.001
0.1681922972202301,0.9539999961853027,0.217378169298172,0.9391111135482788,0.001
0.16865423321723938,0.9440000057220459,0.21739603579044342,0.9391111135482788,0.001
0.1791778802871704,0.9419999718666077,0.2174266278743744,0.9391111135482788,0.001
0.17733746767044067,0.9480000138282776,0.21742060780525208,0.9391111135482788,0.001
0.16752728819847107,0.9459999799728394,0.21738114953041077,0.9391111135482788,0.001
0.1896873116493225,0.949999988079071,0.21737341582775116,0.9391111135482788,0.001
0.17145362496376038,0.9520000219345093,0.21736685931682587,0.9391111135482788,0.001
0.17571212351322174,0.9459999799728394,0.21737658977508545,0.9391111135482788,0.001
0.17588552832603455,0.9480000138282776,0.21735705435276031,0.9391111135482788,0.001
0.16606922447681427,0.9480000138282776,0.21736091375350952,0.9391111135482788,0.001
0.16238845884799957,0.9559999704360962,0.21738529205322266,0.9391111135482788,0.001
0.18045370280742645,0.9539999961853027,0.2174188643693924,0.9393333196640015,0.001
0.16450931131839752,0.9520000219345093,0.217413991689682,0.9391111135482788,0.001
0.16850817203521729,0.9459999799728394,0.21739007532596588,0.9393333196640015,0.001
0.15917448699474335,0.9480000138282776,0.21742433309555054,0.9393333196640015,0.001
0.18091194331645966,0.949999988079071,0.2173815220594406,0.9393333196640015,0.001
0.18159212172031403,0.9440000057220459,0.21737678349018097,0.9393333196640015,0.001
0.17148014903068542,0.9459999799728394,0.2173990160226822,0.9393333196640015,0.001
0.17678116261959076,0.9459999799728394,0.21733663976192474,0.9393333196640015,0.001
0.18641534447669983,0.9459999799728394,0.21729111671447754,0.9391111135482788,0.001
0.17832781374454498,0.9440000057220459,0.2173052877187729,0.9391111135482788,0.001
0.1725587546825409,0.9520000219345093,0.21724878251552582,0.9391111135482788,0.001
0.18433593213558197,0.9440000057220459,0.21724672615528107,0.9391111135482788,0.001
0.1793929636478424,0.9459999799728394,0.21719348430633545,0.9391111135482788,0.001
0.18475626409053802,0.949999988079071,0.21712449193000793,0.9391111135482788,0.001
0.16967570781707764,0.9539999961853027,0.2170921415090561,0.9393333196640015,0.001
0.166966512799263,0.9440000057220459,0.2170766144990921,0.9393333196640015,0.001
0.17817355692386627,0.9459999799728394,0.21707309782505035,0.9393333196640015,0.001
0.17646268010139465,0.9539999961853027,0.21704259514808655,0.9393333196640015,0.001
0.17362242937088013,0.949999988079071,0.21704088151454926,0.9395555257797241,0.001
0.17368946969509125,0.9520000219345093,0.2170489877462387,0.9395555257797241,0.001
0.1692223697900772,0.9480000138282776,0.21708627045154572,0.9395555257797241,0.001
0.16299013793468475,0.9520000219345093,0.2170899212360382,0.9395555257797241,0.001
0.16599687933921814,0.9520000219345093,0.21709990501403809,0.9395555257797241,0.001
0.19254690408706665,0.9440000057220459,0.21705417335033417,0.9395555257797241,0.001
0.1756909191608429,0.9520000219345093,0.2171011120080948,0.9395555257797241,0.001
0.17190495133399963,0.9419999718666077,0.21709531545639038,0.9397777915000916,0.001
0.17644645273685455,0.9539999961853027,0.2170545607805252,0.9397777915000916,0.001
0.177592471241951,0.9459999799728394,0.2170315831899643,0.9397777915000916,0.001
0.15752653777599335,0.9520000219345093,0.21699081361293793,0.9397777915000916,0.001
0.15405072271823883,0.9559999704360962,0.21697092056274414,0.9397777915000916,0.001
0.17077550292015076,0.949999988079071,0.21696458756923676,0.9397777915000916,0.001
0.19075290858745575,0.9480000138282776,0.21695616841316223,0.9397777915000916,0.001
0.1668761819601059,0.949999988079071,0.21696990728378296,0.9397777915000916,0.001
0.180511936545372,0.9520000219345093,0.2169550657272339,0.9399999976158142,0.001
0.17959684133529663,0.9480000138282776,0.2169826626777649,0.9397777915000916,0.001
0.16322237253189087,0.9520000219345093,0.2169804573059082,0.9397777915000916,0.001
0.1618182212114334,0.9520000219345093,0.21696524322032928,0.9397777915000916,0.001
0.15871214866638184,0.9580000042915344,0.21691372990608215,0.9399999976158142,0.001
0.175162672996521,0.949999988079071,0.2168533354997635,0.9399999976158142,0.001
0.17657098174095154,0.949999988079071,0.21680279076099396,0.9399999976158142,0.001
0.17995058000087738,0.9440000057220459,0.21676361560821533,0.9399999976158142,0.001
0.17841537296772003,0.9440000057220459,0.2167588621377945,0.9397777915000916,0.001
0.17785391211509705,0.9520000219345093,0.21677428483963013,0.9397777915000916,0.001
0.1573379933834076,0.9520000219345093,0.21681463718414307,0.9399999976158142,0.001
0.18013828992843628,0.9459999799728394,0.21684052050113678,0.9404444694519043,0.001
0.164765864610672,0.9480000138282776,0.21680912375450134,0.9404444694519043,0.001
0.1886625587940216,0.9520000219345093,0.21687263250350952,0.9404444694519043,0.001
0.16440504789352417,0.9539999961853027,0.21685820817947388,0.9404444694519043,0.001
0.17820428311824799,0.949999988079071,0.2168418914079666,0.9404444694519043,0.001
0.18592703342437744,0.9419999718666077,0.21677643060684204,0.940666675567627,0.001
0.16790607571601868,0.9459999799728394,0.21681588888168335,0.940666675567627,0.001
0.16968539357185364,0.9559999704360962,0.2167268991470337,0.940666675567627,0.001
0.16995137929916382,0.9480000138282776,0.21673144400119781,0.940666675567627,0.001
0.1782469004392624,0.9459999799728394,0.21673692762851715,0.940666675567627,0.001
0.17292627692222595,0.949999988079071,0.2167106717824936,0.940666675567627,0.001
0.16672837734222412,0.9539999961853027,0.21670125424861908,0.940666675567627,0.001
0.1734248250722885,0.949999988079071,0.216679647564888,0.940666675567627,0.001
0.17882470786571503,0.949999988079071,0.21661823987960815,0.940666675567627,0.001
0.16815674304962158,0.9459999799728394,0.21659903228282928,0.940666675567627,0.001
0.1701112687587738,0.9459999799728394,0.216612309217453,0.940666675567627,0.001
0.1675959825515747,0.9520000219345093,0.21662327647209167,0.940666675567627,0.001
0.16188186407089233,0.9480000138282776,0.21660788357257843,0.940666675567627,0.001
0.16719137132167816,0.9480000138282776,0.21657739579677582,0.940666675567627,0.001
0.1757156401872635,0.949999988079071,0.21661996841430664,0.940666675567627,0.001
0.17054852843284607,0.9480000138282776,0.2166537344455719,0.940666675567627,0.001
0.16592691838741302,0.949999988079071,0.2166946977376938,0.940666675567627,0.001
0.17215363681316376,0.9520000219345093,0.21670550107955933,0.940666675567627,0.001
0.18207916617393494,0.949999988079071,0.21665258705615997,0.940666675567627,0.001
0.17835447192192078,0.9480000138282776,0.21662887930870056,0.940666675567627,0.001
0.16955575346946716,0.9440000057220459,0.21660465002059937,0.9408888816833496,0.001
0.16408035159111023,0.9520000219345093,0.21655236184597015,0.9408888816833496,0.001
0.16159206628799438,0.9480000138282776,0.21653708815574646,0.9408888816833496,0.001
0.17181074619293213,0.949999988079071,0.2164919525384903,0.9408888816833496,0.001
0.17045249044895172,0.949999988079071,0.21646974980831146,0.9408888816833496,0.001
0.15820233523845673,0.9559999704360962,0.21651272475719452,0.9408888816833496,0.001
0.17203350365161896,0.9539999961853027,0.21646317839622498,0.9408888816833496,0.001
0.16640247404575348,0.949999988079071,0.21648329496383667,0.9408888816833496,0.001
0.1907157152891159,0.9440000057220459,0.21643005311489105,0.9408888816833496,0.001
0.17646123468875885,0.9480000138282776,0.21638093888759613,0.9408888816833496,0.001
0.16139110922813416,0.9459999799728394,0.21637506783008575,0.9408888816833496,0.001
0.17356149852275848,0.949999988079071,0.21638114750385284,0.9408888816833496,0.001
0.17582783102989197,0.9459999799728394,0.21638904511928558,0.9408888816833496,0.001
0.16994404792785645,0.9440000057220459,0.21637007594108582,0.9408888816833496,0.001
0.174895241856575,0.9539999961853027,0.21638865768909454,0.9408888816833496,0.001
0.16167615354061127,0.9440000057220459,0.2163226306438446,0.9408888816833496,0.001
0.16590668261051178,0.949999988079071,0.21632185578346252,0.9408888816833496,0.001
0.17467372119426727,0.9539999961853027,0.2162863314151764,0.9408888816833496,0.001
0.16357947885990143,0.9520000219345093,0.2162623405456543,0.9408888816833496,0.001
0.17411577701568604,0.9520000219345093,0.21620939671993256,0.9408888816833496,0.001
0.17558619379997253,0.9480000138282776,0.21618662774562836,0.9411110877990723,0.001
0.17050576210021973,0.9440000057220459,0.2161979228258133,0.9411110877990723,0.001
0.1582062691450119,0.9539999961853027,0.21623599529266357,0.9411110877990723,0.001
0.1761205643415451,0.9520000219345093,0.21623541414737701,0.9411110877990723,0.001
0.18710701167583466,0.9399999976158142,0.21618221700191498,0.9411110877990723,0.001
0.1710381656885147,0.949999988079071,0.21617010235786438,0.9411110877990723,0.001
0.18714465200901031,0.9440000057220459,0.21621768176555634,0.9411110877990723,0.001
0.16635067760944366,0.9539999961853027,0.21619245409965515,0.9411110877990723,0.001
0.17036712169647217,0.9440000057220459,0.21617038547992706,0.9411110877990723,0.001
0.15557223558425903,0.949999988079071,0.21619471907615662,0.9411110877990723,0.001
0.17022360861301422,0.9520000219345093,0.2161751687526703,0.9411110877990723,0.001
0.18401974439620972,0.9419999718666077,0.21614882349967957,0.9411110877990723,0.001
0.17750999331474304,0.949999988079071,0.21614091098308563,0.9411110877990723,0.001
0.159674733877182,0.9559999704360962,0.21618306636810303,0.9411110877990723,0.001
0.16351640224456787,0.9539999961853027,0.2161383032798767,0.9413333535194397,0.001
0.181568905711174,0.9440000057220459,0.2161170244216919,0.9413333535194397,0.001
0.16393741965293884,0.9520000219345093,0.21616573631763458,0.9413333535194397,0.001
0.15441498160362244,0.9559999704360962,0.2161814570426941,0.9413333535194397,0.001
0.1869364082813263,0.9520000219345093,0.2161838561296463,0.9413333535194397,0.001
0.16185377538204193,0.9539999961853027,0.2161725014448166,0.9413333535194397,0.001
0.1582837700843811,0.9539999961853027,0.2162114381790161,0.9413333535194397,0.001
0.17112301290035248,0.949999988079071,0.2161829173564911,0.9413333535194397,0.001
0.1700589507818222,0.9520000219345093,0.21617229282855988,0.9413333535194397,0.001
0.17168378829956055,0.9559999704360962,0.2162393480539322,0.9413333535194397,0.001
0.15639309585094452,0.9520000219345093,0.21624335646629333,0.9413333535194397,0.001
0.1644180566072464,0.9559999704360962,0.2161390781402588,0.9413333535194397,0.001
0.17468422651290894,0.9480000138282776,0.21614038944244385,0.9413333535194397,0.001
0.1701899617910385,0.9480000138282776,0.21616360545158386,0.9413333535194397,0.001
0.1668430119752884,0.9520000219345093,0.21613465249538422,0.9413333535194397,0.001
0.17919506132602692,0.949999988079071,0.21613933145999908,0.9413333535194397,0.001
0.1701752245426178,0.9580000042915344,0.21611210703849792,0.9413333535194397,0.001
0.1859007328748703,0.9459999799728394,0.21608856320381165,0.9413333535194397,0.001
0.1659380942583084,0.9559999704360962,0.2160715013742447,0.9413333535194397,0.001
0.1750461459159851,0.9580000042915344,0.2160402536392212,0.9413333535194397,0.001
0.15535083413124084,0.9539999961853027,0.21599608659744263,0.9413333535194397,0.001
0.17169752717018127,0.9480000138282776,0.21604444086551666,0.9413333535194397,0.001
0.16616122424602509,0.9559999704360962,0.2160652130842209,0.9413333535194397,0.001
0.16771817207336426,0.9459999799728394,0.21604567766189575,0.9413333535194397,0.001
0.15844199061393738,0.949999988079071,0.21603940427303314,0.9413333535194397,0.001
0.1655353307723999,0.9539999961853027,0.21606317162513733,0.9413333535194397,0.001
0.16632504761219025,0.9520000219345093,0.21615011990070343,0.9413333535194397,0.001
0.1744653880596161,0.9520000219345093,0.2161191999912262,0.9413333535194397,0.001
0.1688186675310135,0.9520000219345093,0.2161354422569275,0.9413333535194397,0.001
0.16470205783843994,0.9539999961853027,0.21610717475414276,0.9413333535194397,0.001
0.15252630412578583,0.9580000042915344,0.21609745919704437,0.9413333535194397,0.001
0.16269542276859283,0.9559999704360962,0.2160577028989792,0.9413333535194397,0.001
0.1894494742155075,0.9459999799728394,0.21601440012454987,0.9413333535194397,0.001
0.15576210618019104,0.9539999961853027,0.21602734923362732,0.9413333535194397,0.001
0.17641493678092957,0.9399999976158142,0.2160244882106781,0.9413333535194397,0.001
0.16076241433620453,0.9559999704360962,0.2159954309463501,0.9413333535194397,0.001
0.18038974702358246,0.9539999961853027,0.21592265367507935,0.9413333535194397,0.001
0.15538880228996277,0.9539999961853027,0.21596825122833252,0.9413333535194397,0.001
0.17331865429878235,0.9480000138282776,0.21600984036922455,0.9413333535194397,0.001
0.1713055968284607,0.9520000219345093,0.21599309146404266,0.9413333535194397,0.001
0.16966982185840607,0.9520000219345093,0.21602600812911987,0.9413333535194397,0.001
0.16791854798793793,0.9539999961853027,0.2159954458475113,0.9413333535194397,0.001
0.16304150223731995,0.9480000138282776,0.21596534550189972,0.9413333535194397,0.001
0.15740135312080383,0.9580000042915344,0.2159593552350998,0.9413333535194397,0.001
0.16378390789031982,0.9539999961853027,0.21599110960960388,0.9413333535194397,0.001
0.17246264219284058,0.9539999961853027,0.21598219871520996,0.9413333535194397,0.001
0.16959801316261292,0.9520000219345093,0.21590471267700195,0.9413333535194397,0.001
0.15456804633140564,0.949999988079071,0.2159040868282318,0.9413333535194397,0.001
0.17393210530281067,0.9480000138282776,0.2159244865179062,0.9413333535194397,0.001
0.16851194202899933,0.9520000219345093,0.21592065691947937,0.9413333535194397,0.001
0.1777578443288803,0.949999988079071,0.21589240431785583,0.9413333535194397,0.001
0.1767207384109497,0.949999988079071,0.21582742035388947,0.9413333535194397,0.001
0.175948828458786,0.9480000138282776,0.21585172414779663,0.9413333535194397,0.001
0.16401168704032898,0.949999988079071,0.21580253541469574,0.9413333535194397,0.001
0.15944983065128326,0.9559999704360962,0.21579048037528992,0.9413333535194397,0.001
0.1798987090587616,0.9459999799728394,0.21580301225185394,0.9413333535194397,0.001
0.16643625497817993,0.9480000138282776,0.21582485735416412,0.9413333535194397,0.001
0.1759132295846939,0.9459999799728394,0.215840145945549,0.9413333535194397,0.001
0.1696128100156784,0.949999988079071,0.2157919853925705,0.9413333535194397,0.001
