loss,accuracy,val_loss,val_accuracy,lr
0.5159257054328918,0.8420000076293945,1.4653736352920532,0.3535555601119995,0.001
0.26393014192581177,0.9300000071525574,1.439471960067749,0.6391111016273499,0.001
0.20973451435565948,0.9440000057220459,1.42854642868042,0.5937777757644653,0.001
0.17845088243484497,0.9440000057220459,1.5459290742874146,0.48355555534362793,0.001
0.16378776729106903,0.9539999961853027,1.5063906908035278,0.33888888359069824,0.001
0.14735521376132965,0.9599999785423279,1.6128854751586914,0.19688889384269714,0.001
0.12800894677639008,0.9620000123977661,1.6633564233779907,0.052444443106651306,0.001
0.12171962857246399,0.9639999866485596,1.6442586183547974,0.07999999821186066,0.001
0.12022296339273453,0.9679999947547913,1.6294070482254028,0.058666665107011795,0.001
0.11341038346290588,0.9660000205039978,1.696294903755188,0.1706666648387909,0.001
0.10349603742361069,0.9660000205039978,1.5580031871795654,0.18177777528762817,0.001
0.10830575227737427,0.972000002861023,1.7802797555923462,0.1966666728258133,0.001
0.11205105483531952,0.9700000286102295,1.408990740776062,0.38466668128967285,0.001
0.09540371596813202,0.9739999771118164,1.6507285833358765,0.2491111159324646,0.001
0.10136160254478455,0.9700000286102295,1.3918766975402832,0.31200000643730164,0.001
0.09798368811607361,0.9660000205039978,1.5559709072113037,0.0282222218811512,0.001
0.10908310115337372,0.9679999947547913,1.8344839811325073,0.06177777796983719,0.001
0.08642355352640152,0.9760000109672546,1.3401591777801514,0.34933334589004517,0.001
0.07808199524879456,0.9739999771118164,1.3093899488449097,0.3733333349227905,0.001
0.07524460554122925,0.9779999852180481,1.1830692291259766,0.44111111760139465,0.001
0.090181365609169,0.9800000190734863,1.0877723693847656,0.6057778000831604,0.001
0.1157742515206337,0.972000002861023,0.9902322292327881,0.52311110496521,0.001
0.08366922289133072,0.9700000286102295,0.40415021777153015,0.8982222080230713,0.001
0.08695942908525467,0.9800000190734863,0.8967000842094421,0.5720000267028809,0.001
0.08068239688873291,0.9800000190734863,1.4046565294265747,0.5006666779518127,0.001
0.09298952668905258,0.9739999771118164,0.2975104749202728,0.9317777752876282,0.001
0.0801783949136734,0.9779999852180481,0.3667679727077484,0.9259999990463257,0.001
0.06365742534399033,0.9860000014305115,0.3693322539329529,0.9197777509689331,0.001
0.047735054045915604,0.984000027179718,0.3845908045768738,0.9048888683319092,0.001
0.05641099438071251,0.9819999933242798,0.37403905391693115,0.9213333129882812,0.001
0.07176575809717178,0.9739999771118164,0.41121700406074524,0.906000018119812,0.001
0.07082215696573257,0.9819999933242798,0.5942954421043396,0.8188889026641846,0.001
0.05587685480713844,0.984000027179718,0.6000953316688538,0.7662222385406494,0.001
0.06049579754471779,0.984000027179718,0.41947320103645325,0.871999979019165,0.001
0.04158397018909454,0.9900000095367432,0.32484933733940125,0.9191111326217651,0.001
0.04454542323946953,0.9860000014305115,0.3210643529891968,0.9164444208145142,0.001
0.03737492859363556,0.9900000095367432,0.2890542149543762,0.9231111407279968,0.001
0.04687073081731796,0.9800000190734863,0.2994367480278015,0.9228888750076294,0.001
0.051945291459560394,0.9860000014305115,0.2800483703613281,0.9319999814033508,0.001
0.04503631591796875,0.9800000190734863,0.3182135224342346,0.9153333306312561,0.001
0.0431300550699234,0.9819999933242798,0.3822189271450043,0.9017778038978577,0.001
0.04352591931819916,0.9879999756813049,0.32633623480796814,0.9264444708824158,0.001
0.04498327150940895,0.9860000014305115,0.356751948595047,0.9057777523994446,0.001
0.03549584746360779,0.9919999837875366,0.4172486364841461,0.8764444589614868,0.001
0.027600077912211418,0.9940000176429749,0.42088398337364197,0.8888888955116272,0.001
0.025247111916542053,0.9940000176429749,0.5080647468566895,0.8157777786254883,0.001
0.01584441401064396,0.9959999918937683,0.29234546422958374,0.9211111068725586,0.001
0.012419173493981361,1.0,0.33718162775039673,0.9160000085830688,0.001
0.019594954326748848,0.9940000176429749,0.4339863657951355,0.8468888998031616,0.001
0.0536203533411026,0.9819999933242798,0.48244932293891907,0.9293333292007446,0.001
0.03811950609087944,0.9900000095367432,0.31477290391921997,0.9233333468437195,0.001
0.054092392325401306,0.9819999933242798,0.34707000851631165,0.9402222037315369,0.001
0.026700520887970924,0.9900000095367432,0.3215211033821106,0.9402222037315369,0.001
0.02621450461447239,0.9919999837875366,0.3554317355155945,0.9340000152587891,0.001
0.01596871018409729,0.9980000257492065,0.3706482946872711,0.9266666769981384,0.001
0.009335697628557682,1.0,0.3167106807231903,0.9344444274902344,0.001
0.008390876464545727,1.0,0.3331661820411682,0.9386666417121887,0.001
0.007299978286027908,0.9980000257492065,0.3346436619758606,0.9233333468437195,0.001
0.0140606127679348,0.9980000257492065,0.37052083015441895,0.9357777833938599,0.001
0.049182191491127014,0.9819999933242798,0.623054027557373,0.9304444193840027,0.001
0.047926969826221466,0.9860000014305115,0.5543316006660461,0.9324444532394409,0.001
0.03970931097865105,0.9900000095367432,0.7801765203475952,0.8393333554267883,0.001
0.03951501473784447,0.9959999918937683,0.4061141014099121,0.9357777833938599,0.001
0.04386978596448898,0.984000027179718,3.6300861835479736,0.3642222285270691,0.001
0.02889915555715561,0.9940000176429749,0.6047630906105042,0.8622221946716309,0.001
0.031497325748205185,0.9940000176429749,0.3279685378074646,0.9382222294807434,0.001
0.022627269849181175,0.9959999918937683,0.41968607902526855,0.8888888955116272,0.001
0.02835056185722351,0.9919999837875366,0.34737154841423035,0.9344444274902344,0.001
0.03634289279580116,0.9879999756813049,0.3438499867916107,0.9322222471237183,0.001
0.047641824930906296,0.9779999852180481,0.45621028542518616,0.9331111311912537,0.001
0.031986478716135025,0.9900000095367432,0.5044822692871094,0.9008888602256775,0.001
0.032545097172260284,0.9900000095367432,0.5757864117622375,0.8697777986526489,0.001
0.02289162203669548,0.9940000176429749,0.45796772837638855,0.9135555624961853,0.001
0.010730661451816559,0.9980000257492065,0.5366674661636353,0.9306666851043701,0.001
0.008923166431486607,1.0,0.4057480990886688,0.9271110892295837,0.001
0.008420230820775032,1.0,0.41716352105140686,0.9375555515289307,0.001
0.005808902904391289,1.0,0.3806917667388916,0.9340000152587891,0.001
0.0023053197655826807,1.0,0.3666084110736847,0.9399999976158142,0.001
0.002371904905885458,1.0,0.34706252813339233,0.9300000071525574,0.001
0.0020022010430693626,1.0,0.34941428899765015,0.9380000233650208,0.001
0.002031921409070492,1.0,0.3561320900917053,0.937333345413208,0.001
0.0015943230828270316,1.0,0.3528508245944977,0.9357777833938599,0.001
0.001294851885177195,1.0,0.35606124997138977,0.9368888735771179,0.001
0.0012804026482626796,1.0,0.36782246828079224,0.9371111392974854,0.001
0.0010951563017442822,1.0,0.3716605305671692,0.9377777576446533,0.001
0.0013402140466496348,1.0,0.36949580907821655,0.9364444613456726,0.001
0.0008169913198798895,1.0,0.38355690240859985,0.9368888735771179,0.001
0.0010961988009512424,1.0,0.3896104097366333,0.9371111392974854,0.001
0.0007277288241311908,1.0,0.39250075817108154,0.9364444613456726,0.001
0.0008554409723728895,1.0,0.39783337712287903,0.9380000233650208,0.001
0.000590625568293035,1.0,0.3990994393825531,0.9382222294807434,0.001
0.0010226845042780042,1.0,0.393877238035202,0.937333345413208,0.001
0.0008041681139729917,1.0,0.391720712184906,0.9362221956253052,0.001
0.0007115276530385017,1.0,0.39818480610847473,0.9386666417121887,0.001
0.00046127146924845874,1.0,0.40047183632850647,0.9388889074325562,0.001
0.000558053026907146,1.0,0.3962652087211609,0.937333345413208,0.001
0.0005158480489626527,1.0,0.39878079295158386,0.937333345413208,0.001
0.0003356017987243831,1.0,0.4042324423789978,0.9386666417121887,0.001
0.0003328364109620452,1.0,0.4095330834388733,0.9388889074325562,0.001
0.00034612970193848014,1.0,0.41400450468063354,0.9386666417121887,0.001
0.0004123309045098722,1.0,0.41518786549568176,0.9384444355964661,0.001
0.0003869820502586663,1.0,0.41250744462013245,0.9382222294807434,0.001
0.0003300300450064242,1.0,0.41388261318206787,0.9384444355964661,0.001
0.0004813692648895085,1.0,0.41297647356987,0.9377777576446533,0.001
0.0003168864641338587,1.0,0.40936964750289917,0.9344444274902344,0.001
0.0003976467705797404,1.0,0.4122982323169708,0.9359999895095825,0.001
0.0003212727897334844,1.0,0.41712045669555664,0.9380000233650208,0.001
0.0003049503138754517,1.0,0.41787466406822205,0.937333345413208,0.001
0.00028996283072046936,1.0,0.42176681756973267,0.9386666417121887,0.001
0.000540032284334302,1.0,0.41044604778289795,0.9288889169692993,0.001
0.0004888804396614432,1.0,0.4063881039619446,0.9293333292007446,0.001
0.00030473218066617846,1.0,0.41039538383483887,0.9359999895095825,0.001
0.00025452394038438797,1.0,0.4213227927684784,0.9391111135482788,0.001
0.00024952628882601857,1.0,0.42913687229156494,0.9397777915000916,0.001
0.00032874380121938884,1.0,0.4277895987033844,0.9382222294807434,0.001
0.000229658602620475,1.0,0.4282259941101074,0.9366666674613953,0.001
0.0002503992582205683,1.0,0.43170809745788574,0.9362221956253052,0.001
0.0003148321411572397,1.0,0.43736594915390015,0.9382222294807434,0.001
0.0002969054621644318,1.0,0.4389156103134155,0.9382222294807434,0.001
0.00027145902276970446,1.0,0.43916600942611694,0.9382222294807434,0.001
0.0003245309635531157,1.0,0.4351462423801422,0.9364444613456726,0.001
0.0002646257635205984,1.0,0.43669772148132324,0.9375555515289307,0.001
0.0004276948166079819,1.0,0.4410764276981354,0.9348888993263245,0.001
0.0003123877686448395,1.0,0.44252052903175354,0.9348888993263245,0.001
0.0003444701142143458,1.0,0.44211605191230774,0.9359999895095825,0.001
0.0002663448394741863,1.0,0.44105008244514465,0.9377777576446533,0.001
0.00026816956233233213,1.0,0.4377947449684143,0.9344444274902344,0.001
0.00022323951998259872,1.0,0.4388645887374878,0.9353333115577698,0.001
0.00022063565847929567,1.0,0.44276347756385803,0.9375555515289307,0.001
0.00020928574667777866,1.0,0.44236665964126587,0.937333345413208,0.001
0.0001859586627688259,1.0,0.4440270662307739,0.9364444613456726,0.001
0.0003198547346983105,1.0,0.4445362687110901,0.9357777833938599,0.001
0.00020872133609373122,1.0,0.44669607281684875,0.9368888735771179,0.001
0.00017066548753064126,1.0,0.4466925859451294,0.9357777833938599,0.001
0.00020239238801877946,1.0,0.44544440507888794,0.9359999895095825,0.001
0.00021680441568605602,1.0,0.4473825693130493,0.9362221956253052,0.001
0.00018300878582522273,1.0,0.4496411681175232,0.9375555515289307,0.001
0.0001855021546361968,1.0,0.4484170377254486,0.9371111392974854,0.001
0.00017338263569399714,1.0,0.4457651376724243,0.9355555772781372,0.001
0.0003343257703818381,1.0,0.44821783900260925,0.9364444613456726,0.001
0.00014599515998270363,1.0,0.4521862268447876,0.9377777576446533,0.001
0.00015980072203092277,1.0,0.4532562494277954,0.9377777576446533,0.001
0.0001590894244145602,1.0,0.45464229583740234,0.9377777576446533,0.001
0.00023449993750546128,1.0,0.4483233094215393,0.9344444274902344,0.001
0.00015553571574855596,1.0,0.4440324604511261,0.9319999814033508,0.001
0.0002120022545568645,1.0,0.44485610723495483,0.9344444274902344,0.001
0.0003059691225644201,1.0,0.4498344659805298,0.937333345413208,0.001
0.0006345936562865973,1.0,0.4809513986110687,0.9384444355964661,0.001
0.0005196594283916056,1.0,0.47670990228652954,0.9359999895095825,0.001
0.019800705835223198,0.9980000257492065,5.834007740020752,0.1313333362340927,0.001
0.1478135734796524,0.9639999866485596,4.240035533905029,0.38777777552604675,0.001
0.14225369691848755,0.9539999961853027,11.52324104309082,0.5206666588783264,0.001
0.12678854167461395,0.9599999785423279,5.649219989776611,0.8019999861717224,0.001
0.09687787294387817,0.9700000286102295,11.358726501464844,0.5922222137451172,0.001
0.08179139345884323,0.9760000109672546,7.236074447631836,0.4148888885974884,0.001
0.06268461793661118,0.9800000190734863,3.6124682426452637,0.5833333134651184,0.001
0.057953011244535446,0.9779999852180481,1.0779443979263306,0.9286666512489319,0.001
0.03566689044237137,0.9900000095367432,0.8275754451751709,0.9197777509689331,0.001
0.03144948184490204,0.9900000095367432,0.8589680194854736,0.9317777752876282,0.001
0.023953024297952652,0.9940000176429749,0.814115583896637,0.9333333373069763,0.001
0.01533814799040556,0.9940000176429749,0.5693607926368713,0.9306666851043701,0.001
0.014033213257789612,0.9980000257492065,0.6893733739852905,0.9328888654708862,0.001
0.03598715737462044,0.984000027179718,0.5264763236045837,0.9402222037315369,0.001
0.021190175786614418,0.9959999918937683,0.5476641654968262,0.9380000233650208,0.001
0.013522540219128132,0.9940000176429749,0.4355587959289551,0.9368888735771179,0.001
0.015689868479967117,0.9959999918937683,0.5586163997650146,0.9355555772781372,0.001
0.013339324854314327,0.9959999918937683,0.39003080129623413,0.9364444613456726,0.0005
0.006754168309271336,1.0,0.4070414900779724,0.9242222309112549,0.0005
0.004942951258271933,1.0,0.4137890040874481,0.9364444613456726,0.0005
0.0034213289618492126,1.0,0.4102618396282196,0.9355555772781372,0.0005
0.002514505758881569,1.0,0.4019625782966614,0.9359999895095825,0.0005
0.002900797640904784,1.0,0.3980816602706909,0.9364444613456726,0.0005
0.0022802352905273438,1.0,0.4200204014778137,0.9384444355964661,0.0005
0.0014742787461727858,1.0,0.42186644673347473,0.9384444355964661,0.0005
0.002166135236620903,1.0,0.41731828451156616,0.9384444355964661,0.0005
0.0015457093250006437,1.0,0.4191229045391083,0.9384444355964661,0.0005
0.001335941138677299,1.0,0.4239802062511444,0.9393333196640015,0.0005
0.0014266057405620813,1.0,0.4268699884414673,0.9397777915000916,0.0005
0.0014741957420483232,1.0,0.4214390516281128,0.9393333196640015,0.0005
0.0009782938286662102,1.0,0.41867882013320923,0.9386666417121887,0.0005
0.001784512191079557,1.0,0.4019145369529724,0.9362221956253052,0.0005
0.0011869078734889627,1.0,0.4001436233520508,0.937333345413208,0.0005
0.0015393384965136647,1.0,0.40831881761550903,0.9377777576446533,0.0005
0.0011316363234072924,1.0,0.42035526037216187,0.9384444355964661,0.0005
0.0011495485669001937,1.0,0.42964041233062744,0.9386666417121887,0.0005
0.0011400609510019422,1.0,0.43183594942092896,0.9391111135482788,0.0005
0.0010902286740019917,1.0,0.43611231446266174,0.9384444355964661,0.0005
0.0012872092192992568,1.0,0.433923602104187,0.9380000233650208,0.0005
0.0009252560557797551,1.0,0.4322310984134674,0.9375555515289307,0.0005
0.0009580139885656536,1.0,0.4304963946342468,0.9377777576446533,0.0005
0.0007974440813995898,1.0,0.4262334108352661,0.937333345413208,0.0005
0.0007473212317563593,1.0,0.4235469698905945,0.937333345413208,0.0005
0.0007725185714662075,1.0,0.4263238310813904,0.937333345413208,0.0005
0.0007673383224755526,1.0,0.4290218651294708,0.9380000233650208,0.0005
0.0007465099333785474,1.0,0.4270118176937103,0.9377777576446533,0.0005
0.0004865045484621078,1.0,0.4246569573879242,0.9368888735771179,0.0005
0.0007277914555743337,1.0,0.42976459860801697,0.9375555515289307,0.0005
0.0007184349815361202,1.0,0.43490222096443176,0.9377777576446533,0.0005
0.000593877921346575,1.0,0.43636423349380493,0.9377777576446533,0.0005
0.0006781247211620212,1.0,0.4294341802597046,0.9364444613456726,0.0005
0.000551857054233551,1.0,0.43210479617118835,0.9362221956253052,0.0005
0.0005603810423053801,1.0,0.4387136995792389,0.9371111392974854,0.0005
0.0004522133676800877,1.0,0.4417876899242401,0.9371111392974854,0.0005
0.0005803845124319196,1.0,0.4375627040863037,0.9368888735771179,0.0005
0.0005397928180173039,1.0,0.44019654393196106,0.9371111392974854,0.0005
0.0007074842578731477,1.0,0.4427560567855835,0.937333345413208,0.0005
0.0007950806757435203,1.0,0.438818097114563,0.9368888735771179,0.0005
0.00044431499554775655,1.0,0.43697795271873474,0.9375555515289307,0.0005
0.0004726065380964428,1.0,0.4372989535331726,0.9371111392974854,0.0005
0.0005139611894264817,1.0,0.4420066177845001,0.9362221956253052,0.0005
0.0005142916925251484,1.0,0.44471651315689087,0.9362221956253052,0.0005
0.0004705475876107812,1.0,0.446943074464798,0.937333345413208,0.0005
0.000551755481865257,1.0,0.4526163935661316,0.9380000233650208,0.0005
0.0005379022331908345,1.0,0.454281210899353,0.9382222294807434,0.0005
0.00040351427742280066,1.0,0.4508386552333832,0.9377777576446533,0.0005
0.0004338228318374604,1.0,0.4497205913066864,0.9371111392974854,0.0005
0.0004414345894474536,1.0,0.4499213993549347,0.9368888735771179,0.00025
0.0006137224263511598,1.0,0.4540940523147583,0.9357777833938599,0.00025
0.0004859151958953589,1.0,0.45717644691467285,0.9357777833938599,0.00025
0.00028136244509369135,1.0,0.4579986035823822,0.9359999895095825,0.00025
0.00034376615076325834,1.0,0.45955029129981995,0.9362221956253052,0.00025
0.000667260552290827,1.0,0.4597988724708557,0.9353333115577698,0.00025
0.00040042525506578386,1.0,0.4582134783267975,0.9355555772781372,0.00025
0.0004151486500632018,1.0,0.4582693576812744,0.9355555772781372,0.00025
0.00043231426388956606,1.0,0.46002197265625,0.9351111054420471,0.00025
0.0007392137194983661,1.0,0.46157974004745483,0.9351111054420471,0.00025
0.0004701994184870273,1.0,0.45802995562553406,0.9348888993263245,0.00025
0.0003931458049919456,1.0,0.4581355154514313,0.9342222213745117,0.00025
0.0005870271706953645,1.0,0.4598332345485687,0.9351111054420471,0.00025
0.0003128118987660855,1.0,0.46208399534225464,0.9357777833938599,0.00025
0.00034724039142020047,1.0,0.4642181098461151,0.9359999895095825,0.00025
0.0003958283341489732,1.0,0.46688607335090637,0.9364444613456726,0.00025
0.00044552359031513333,1.0,0.4624796509742737,0.9357777833938599,0.00025
0.00035265536280348897,1.0,0.4613240659236908,0.9357777833938599,0.00025
0.00033546515624038875,1.0,0.4626355767250061,0.9357777833938599,0.00025
0.00030582613544538617,1.0,0.4640665054321289,0.9359999895095825,0.00025
0.0003580790071282536,1.0,0.46511757373809814,0.9366666674613953,0.00025
0.00030810502357780933,1.0,0.465777188539505,0.9366666674613953,0.00025
0.00042411364847794175,1.0,0.4651374816894531,0.9357777833938599,0.00025
0.00021787664445582777,1.0,0.4670552909374237,0.9355555772781372,0.00025
0.00040633627213537693,1.0,0.4680161774158478,0.9357777833938599,0.00025
0.00030312297167256474,1.0,0.46673479676246643,0.9359999895095825,0.00025
0.00031720430706627667,1.0,0.4659125506877899,0.9355555772781372,0.00025
0.0002441469405312091,1.0,0.46760401129722595,0.9362221956253052,0.00025
0.0005989336059428751,1.0,0.4661542475223541,0.9357777833938599,0.00025
0.00031598014174960554,1.0,0.4648950695991516,0.9362221956253052,0.00025
0.00030853954376652837,1.0,0.46489229798316956,0.9359999895095825,0.00025
0.00040404274477623403,1.0,0.4676593840122223,0.9357777833938599,0.00025
0.00040501440525986254,1.0,0.4682754874229431,0.9353333115577698,0.00025
0.000312148331431672,1.0,0.4693916440010071,0.9357777833938599,0.00025
0.00032352356356568635,1.0,0.4703575372695923,0.9357777833938599,0.00025
0.00027270260034129024,1.0,0.4712805449962616,0.9359999895095825,0.00025
0.00030804614652879536,1.0,0.47322043776512146,0.9357777833938599,0.00025
0.0002579425345174968,1.0,0.4739047884941101,0.9362221956253052,0.00025
0.0003382119757588953,1.0,0.47115054726600647,0.9355555772781372,0.00025
0.0002651226532179862,1.0,0.47180071473121643,0.9355555772781372,0.00025
0.00032247937633655965,1.0,0.47395843267440796,0.9355555772781372,0.00025
0.00031058082822710276,1.0,0.4749818742275238,0.9357777833938599,0.00025
0.00035211219801567495,1.0,0.4751311242580414,0.9359999895095825,0.00025
0.0002766715770121664,1.0,0.47621360421180725,0.9366666674613953,0.00025
0.00024072120140772313,1.0,0.47529828548431396,0.9368888735771179,0.00025
0.0002747735707089305,1.0,0.47436872124671936,0.9359999895095825,0.00025
0.0003367530880495906,1.0,0.47518277168273926,0.9359999895095825,0.00025
0.0002731620043050498,1.0,0.4762427806854248,0.9353333115577698,0.00025
0.00024383985146414489,1.0,0.47608327865600586,0.9355555772781372,0.00025
0.00027334486367180943,1.0,0.4773833155632019,0.9357777833938599,0.00025
0.000332728901412338,1.0,0.4786377549171448,0.9359999895095825,0.000125
0.00022818331490270793,1.0,0.47861865162849426,0.9359999895095825,0.000125
0.00024543548352085054,1.0,0.47912314534187317,0.9353333115577698,0.000125
0.00039514934178441763,1.0,0.4800291359424591,0.9355555772781372,0.000125
0.000216484913835302,1.0,0.48072755336761475,0.9355555772781372,0.000125
0.00022465271467808634,1.0,0.48147812485694885,0.9357777833938599,0.000125
0.0002321319334441796,1.0,0.48129454255104065,0.9355555772781372,0.000125
0.0005441445391625166,1.0,0.480855792760849,0.9355555772781372,0.000125
0.00026159087428823113,1.0,0.48067256808280945,0.9351111054420471,0.000125
0.00021003378788009286,1.0,0.4799204170703888,0.9353333115577698,0.000125
0.00031048309756442904,1.0,0.47905370593070984,0.9353333115577698,0.000125
0.00020012485038023442,1.0,0.4768848717212677,0.9351111054420471,0.000125
0.00035608684993349016,1.0,0.47704339027404785,0.9353333115577698,0.000125
0.00036592656397260725,1.0,0.4774537682533264,0.9353333115577698,0.000125
0.00024947457131929696,1.0,0.4784654974937439,0.9353333115577698,0.000125
0.000319788814522326,1.0,0.47853803634643555,0.9355555772781372,0.000125
0.0003431692603044212,1.0,0.4787745177745819,0.9357777833938599,0.000125
0.0001975401391973719,1.0,0.47925955057144165,0.9357777833938599,0.000125
0.00030207319650799036,1.0,0.4796161651611328,0.9353333115577698,0.000125
0.00038800103357061744,1.0,0.47984007000923157,0.9355555772781372,0.000125
0.00027047895127907395,1.0,0.47883403301239014,0.9362221956253052,0.000125
0.00023372124996967614,1.0,0.4794699549674988,0.9364444613456726,0.000125
0.00024009901972021908,1.0,0.48003238439559937,0.9364444613456726,0.000125
0.00032034717150963843,1.0,0.48115667700767517,0.9359999895095825,0.000125
0.00018061483569908887,1.0,0.4817045331001282,0.9359999895095825,0.000125
0.0002662045299075544,1.0,0.48220106959342957,0.9357777833938599,0.000125
0.0003236053162254393,1.0,0.48218533396720886,0.9357777833938599,0.000125
0.00020966959709767252,1.0,0.48296114802360535,0.9362221956253052,0.000125
0.0003832403162959963,1.0,0.48321184515953064,0.9359999895095825,0.000125
0.0005849444423802197,1.0,0.48049354553222656,0.9357777833938599,0.000125
0.00021718587959185243,1.0,0.47978076338768005,0.9355555772781372,0.000125
0.00019353983225300908,1.0,0.47947216033935547,0.9357777833938599,0.000125
0.00017924100393429399,1.0,0.48006001114845276,0.9355555772781372,0.000125
0.0002034668723354116,1.0,0.4810633659362793,0.9355555772781372,0.000125
0.00018819188699126244,1.0,0.4821605980396271,0.9357777833938599,0.000125
0.0002357153280172497,1.0,0.48300617933273315,0.9357777833938599,0.000125
0.00023609363415744156,1.0,0.4837380051612854,0.9362221956253052,0.000125
0.0002499964612070471,1.0,0.48484688997268677,0.9362221956253052,0.000125
0.00022446506773121655,1.0,0.4850628674030304,0.9362221956253052,0.000125
0.00019931433780584484,1.0,0.4858274757862091,0.9362221956253052,0.000125
0.00025283655850216746,1.0,0.4857015609741211,0.9362221956253052,0.000125
0.00027357402723282576,1.0,0.486293226480484,0.9362221956253052,0.000125
0.00031031807884573936,1.0,0.48656657338142395,0.9355555772781372,0.000125
0.0002620552259031683,1.0,0.48646244406700134,0.9351111054420471,0.000125
0.00025853372062556446,1.0,0.4862653613090515,0.9353333115577698,0.000125
0.00026102003175765276,1.0,0.48543375730514526,0.9355555772781372,0.000125
0.0002635220007505268,1.0,0.48555073142051697,0.9355555772781372,0.000125
0.00023414165480062366,1.0,0.48691990971565247,0.9355555772781372,0.000125
0.00023002967645879835,1.0,0.4870780110359192,0.9357777833938599,0.000125
0.00024111031962092966,1.0,0.4869595170021057,0.9353333115577698,0.000125
0.00018468093185219914,1.0,0.487349271774292,0.9357777833938599,1e-04
0.00029363774228841066,1.0,0.48679372668266296,0.9353333115577698,1e-04
0.00018870309577323496,1.0,0.48690852522850037,0.9355555772781372,1e-04
0.00026246983907185495,1.0,0.48698872327804565,0.9355555772781372,1e-04
0.0001775568089215085,1.0,0.48726969957351685,0.9353333115577698,1e-04
0.0002392775350017473,1.0,0.48745089769363403,0.9355555772781372,1e-04
0.0001670350757194683,1.0,0.48767340183258057,0.9355555772781372,1e-04
0.0003414022794459015,1.0,0.4877032935619354,0.9357777833938599,1e-04
0.00021708468557335436,1.0,0.48787349462509155,0.9357777833938599,1e-04
0.00016696286911610514,1.0,0.4880903959274292,0.9357777833938599,1e-04
0.00018418446416035295,1.0,0.48800623416900635,0.9357777833938599,1e-04
0.0003269787412136793,1.0,0.4887983798980713,0.9353333115577698,1e-04
0.0003123478963971138,1.0,0.4893111288547516,0.9353333115577698,1e-04
0.00023800990311428905,1.0,0.489724725484848,0.9357777833938599,1e-04
0.00021300665684975684,1.0,0.489427775144577,0.9355555772781372,1e-04
0.00019309416529722512,1.0,0.48969531059265137,0.9357777833938599,1e-04
0.00017638603458181024,1.0,0.48989903926849365,0.9359999895095825,1e-04
0.0001924045936902985,1.0,0.48986077308654785,0.9359999895095825,1e-04
0.0002559137356001884,1.0,0.4889926612377167,0.9355555772781372,1e-04
0.0003051881503779441,1.0,0.49009233713150024,0.9355555772781372,1e-04
0.00021168027888052166,1.0,0.4907660484313965,0.9359999895095825,1e-04
0.00020119716646149755,1.0,0.49100038409233093,0.9359999895095825,1e-04
0.00018310139421373606,1.0,0.490882933139801,0.9359999895095825,1e-04
0.0002113238733727485,1.0,0.49137216806411743,0.9359999895095825,1e-04
0.0001819089229684323,1.0,0.4918215572834015,0.9362221956253052,1e-04
0.00025091858697123826,1.0,0.49026617407798767,0.9353333115577698,1e-04
0.00018070680380333215,1.0,0.48987603187561035,0.9351111054420471,1e-04
0.00022678224195260555,1.0,0.4898621439933777,0.9351111054420471,1e-04
0.00014806902618147433,1.0,0.49002885818481445,0.9351111054420471,1e-04
0.0001826022780733183,1.0,0.4898715317249298,0.9355555772781372,1e-04
0.0002219714515376836,1.0,0.48978734016418457,0.9357777833938599,1e-04
0.0002095996169373393,1.0,0.48998144268989563,0.9357777833938599,1e-04
0.0001346822245977819,1.0,0.49056413769721985,0.9359999895095825,1e-04
0.00017311653937213123,1.0,0.49076637625694275,0.9359999895095825,1e-04
0.0005058334791101515,1.0,0.48938727378845215,0.9362221956253052,1e-04
0.00018471370276529342,1.0,0.48821359872817993,0.9364444613456726,1e-04
0.00017418075003661215,1.0,0.4877181947231293,0.9364444613456726,1e-04
0.00016876209701877087,1.0,0.4882636070251465,0.9366666674613953,1e-04
0.00022645824356004596,1.0,0.48823970556259155,0.9364444613456726,1e-04
0.00022358435671776533,1.0,0.488782674074173,0.9359999895095825,1e-04
0.00014898169320076704,1.0,0.4892745912075043,0.9359999895095825,1e-04
0.00022282525605987757,1.0,0.48973122239112854,0.9359999895095825,1e-04
0.000182654446689412,1.0,0.48949572443962097,0.9355555772781372,1e-04
0.0002995631075464189,1.0,0.48931294679641724,0.9353333115577698,1e-04
0.0001720599684631452,1.0,0.4893544912338257,0.9357777833938599,1e-04
0.00026457858621142805,1.0,0.4899146556854248,0.9359999895095825,1e-04
0.0001642805291339755,1.0,0.49063166975975037,0.9364444613456726,1e-04
0.0002989218628499657,1.0,0.48987525701522827,0.9364444613456726,1e-04
0.00016330752987414598,1.0,0.48951590061187744,0.9362221956253052,1e-04
0.00015199325571302325,1.0,0.48945221304893494,0.9357777833938599,1e-04
0.0002460860414430499,1.0,0.4892258048057556,0.9357777833938599,1e-04
0.00015863438602536917,1.0,0.4897744059562683,0.9359999895095825,1e-04
0.00016023812349885702,1.0,0.4903962016105652,0.9359999895095825,1e-04
0.0001900876814033836,1.0,0.49157753586769104,0.9362221956253052,1e-04
0.00018836003437172621,1.0,0.49279725551605225,0.9362221956253052,1e-04
0.00016470735135953873,1.0,0.4937838017940521,0.9364444613456726,1e-04
0.00014808627020101994,1.0,0.4940342903137207,0.9366666674613953,1e-04
0.00021071745140943676,1.0,0.49397364258766174,0.9366666674613953,1e-04
0.00013347461936064065,1.0,0.49362701177597046,0.9364444613456726,1e-04
0.00020153808873146772,1.0,0.4941275417804718,0.9366666674613953,1e-04
0.0001390400720993057,1.0,0.4945489764213562,0.9366666674613953,1e-04
0.0001660964044276625,1.0,0.49424153566360474,0.9366666674613953,1e-04
0.00024197505263146013,1.0,0.4950146973133087,0.9366666674613953,1e-04
0.00020617926202248782,1.0,0.49543696641921997,0.9366666674613953,1e-04
0.00020039756782352924,1.0,0.49431341886520386,0.9366666674613953,1e-04
0.0001970812736544758,1.0,0.49537143111228943,0.9366666674613953,1e-04
0.0001308649661950767,1.0,0.4960843622684479,0.9366666674613953,1e-04
0.00023415984469465911,1.0,0.49717220664024353,0.9366666674613953,1e-04
0.00014447940338868648,1.0,0.4982016682624817,0.9366666674613953,1e-04
0.00028910202672705054,1.0,0.4963664710521698,0.9362221956253052,1e-04
0.00020445378322619945,1.0,0.49581992626190186,0.9362221956253052,1e-04
0.0002136462280759588,1.0,0.4969501495361328,0.9366666674613953,1e-04
0.00015364888531621546,1.0,0.4963177740573883,0.9364444613456726,1e-04
0.0001697485859040171,1.0,0.49694764614105225,0.9366666674613953,1e-04
0.00018855232337955385,1.0,0.49586838483810425,0.9364444613456726,1e-04
0.0001879397314041853,1.0,0.4953370690345764,0.9364444613456726,1e-04
0.00019577342027332634,1.0,0.49512961506843567,0.9364444613456726,1e-04
0.00019780141883529723,1.0,0.49531233310699463,0.9364444613456726,1e-04
0.000132633707835339,1.0,0.49635979533195496,0.9364444613456726,1e-04
0.0002149115753127262,1.0,0.49536627531051636,0.9362221956253052,1e-04
0.00018903618911281228,1.0,0.4940205216407776,0.9357777833938599,1e-04
0.00023381508071906865,1.0,0.49256256222724915,0.9357777833938599,1e-04
0.00013838286395184696,1.0,0.4929535984992981,0.9364444613456726,1e-04
0.00027889033663086593,1.0,0.4946451187133789,0.9366666674613953,1e-04
0.0001344786724075675,1.0,0.49706602096557617,0.9368888735771179,1e-04
0.00011736903979908675,1.0,0.49853163957595825,0.9364444613456726,1e-04
0.0001834224385675043,1.0,0.49875608086586,0.9364444613456726,1e-04
0.000336671742843464,1.0,0.4935130178928375,0.9357777833938599,1e-04
0.00023440564109478146,1.0,0.4890667796134949,0.9344444274902344,1e-04
0.0001515194308012724,1.0,0.48889079689979553,0.9342222213745117,1e-04
0.00015743824769742787,1.0,0.49139660596847534,0.9359999895095825,1e-04
0.0001382872578687966,1.0,0.4929836690425873,0.9357777833938599,1e-04
0.0001751009694999084,1.0,0.49423837661743164,0.9359999895095825,1e-04
0.000284119276329875,1.0,0.4981779456138611,0.9368888735771179,1e-04
0.00017512789054308087,1.0,0.4999644160270691,0.9368888735771179,1e-04
0.00013945696991868317,1.0,0.5002605319023132,0.9368888735771179,1e-04
0.00018834391084965318,1.0,0.5006580352783203,0.9368888735771179,1e-04
0.00012859958223998547,1.0,0.5005086660385132,0.9366666674613953,1e-04
0.00011617296695476398,1.0,0.5000029802322388,0.9366666674613953,1e-04
0.00015578420425299555,1.0,0.5004391074180603,0.9362221956253052,1e-04
0.00017477480287197977,1.0,0.5009191632270813,0.9364444613456726,1e-04
0.00011370729771442711,1.0,0.500701904296875,0.9366666674613953,1e-04
0.00024712475715205073,1.0,0.5013036727905273,0.9362221956253052,1e-04
0.00015610031550750136,1.0,0.5021690726280212,0.9359999895095825,1e-04
0.00016278724069707096,1.0,0.5030999183654785,0.9359999895095825,1e-04
0.00023816066095605493,1.0,0.5020930171012878,0.9359999895095825,1e-04
0.00020233733812347054,1.0,0.5007479786872864,0.9344444274902344,1e-04
0.00017471543105784804,1.0,0.5011476278305054,0.9348888993263245,1e-04
0.00010325068433303386,1.0,0.5017993450164795,0.9355555772781372,1e-04
0.00013465798110701144,1.0,0.5025182962417603,0.9359999895095825,1e-04
0.0002839722437784076,1.0,0.5045767426490784,0.9362221956253052,1e-04
0.00012344916467554867,1.0,0.5058947801589966,0.9364444613456726,1e-04
0.00011117084795841947,1.0,0.5054787397384644,0.9364444613456726,1e-04
0.00016641039110254496,1.0,0.5053269863128662,0.9364444613456726,1e-04
0.0001871228450909257,1.0,0.5050367712974548,0.9364444613456726,1e-04
0.00021103679318912327,1.0,0.5031623244285583,0.9364444613456726,1e-04
0.00011898625234607607,1.0,0.5019568204879761,0.9362221956253052,1e-04
0.00014192245726007968,1.0,0.5021719932556152,0.9364444613456726,1e-04
0.000350151676684618,1.0,0.50018709897995,0.9357777833938599,1e-04
0.00015857342805247754,1.0,0.5000828504562378,0.9357777833938599,1e-04
0.00017811516590882093,1.0,0.500188946723938,0.9355555772781372,1e-04
0.00030152787803672254,1.0,0.5001842975616455,0.9364444613456726,1e-04
0.00013692057109437883,1.0,0.49837949872016907,0.9364444613456726,1e-04
0.00015102879842743278,1.0,0.49826449155807495,0.9368888735771179,1e-04
0.00013067488907836378,1.0,0.4991152286529541,0.9366666674613953,1e-04
0.00016152106400113553,1.0,0.49962636828422546,0.9366666674613953,1e-04
0.00021854782244190574,1.0,0.4984147250652313,0.9364444613456726,1e-04
0.00018467599875293672,1.0,0.49928048253059387,0.9362221956253052,1e-04
0.00011547293252078816,1.0,0.49936652183532715,0.9362221956253052,1e-04
0.00016024077194742858,1.0,0.5008479356765747,0.9364444613456726,1e-04
0.0001550326414871961,1.0,0.5017684102058411,0.9364444613456726,1e-04
0.00012908130884170532,1.0,0.5022177696228027,0.9364444613456726,1e-04
0.0001218764009536244,1.0,0.5024768114089966,0.9366666674613953,1e-04
0.00012129719834774733,1.0,0.5024924278259277,0.9364444613456726,1e-04
0.000138318253448233,1.0,0.502772867679596,0.9359999895095825,1e-04
0.0001050650971592404,1.0,0.5028553009033203,0.9364444613456726,1e-04
0.00013625486462842673,1.0,0.5021224617958069,0.9364444613456726,1e-04
0.00014525162987411022,1.0,0.5016131401062012,0.9362221956253052,1e-04
0.00012233288725838065,1.0,0.5020890235900879,0.9359999895095825,1e-04
0.00014116048987489194,1.0,0.502267062664032,0.9357777833938599,1e-04
0.00012913830869365484,1.0,0.5028567314147949,0.9357777833938599,1e-04
0.00017216119158547372,1.0,0.5030735731124878,0.9355555772781372,1e-04
0.00011296723096165806,1.0,0.5039668679237366,0.9353333115577698,1e-04
0.0001720110303722322,1.0,0.5056741833686829,0.9357777833938599,1e-04
9.870610665529966e-05,1.0,0.5056646466255188,0.9359999895095825,1e-04
0.0001333891850663349,1.0,0.5053796768188477,0.9357777833938599,1e-04
0.0001636154920561239,1.0,0.5062373280525208,0.9364444613456726,1e-04
9.146882075583562e-05,1.0,0.5068839192390442,0.9366666674613953,1e-04
0.00012748032168019563,1.0,0.5073697566986084,0.9364444613456726,1e-04
9.768793097464368e-05,1.0,0.5075238347053528,0.9362221956253052,1e-04
0.00010569948790362105,1.0,0.507577657699585,0.9364444613456726,1e-04
0.00015612684364896268,1.0,0.504851222038269,0.9359999895095825,1e-04
9.123049676418304e-05,1.0,0.503182053565979,0.9359999895095825,1e-04
0.00016010928084142506,1.0,0.5040420293807983,0.9357777833938599,1e-04
0.00011893297778442502,1.0,0.5044860243797302,0.9357777833938599,1e-04
0.00014925962022971362,1.0,0.5053260326385498,0.9359999895095825,1e-04
0.00011120991257485002,1.0,0.5069766044616699,0.9368888735771179,1e-04
0.00011588366032810882,1.0,0.5072351098060608,0.9366666674613953,1e-04
9.243353269994259e-05,1.0,0.5075514912605286,0.9366666674613953,1e-04
0.00011525275476742536,1.0,0.5085634589195251,0.9366666674613953,1e-04
0.000161368225235492,1.0,0.5088790655136108,0.9366666674613953,1e-04
0.0001279345015063882,1.0,0.5094214677810669,0.9368888735771179,1e-04
0.0001484919775975868,1.0,0.5100657343864441,0.9364444613456726,1e-04
9.789984324015677e-05,1.0,0.511424720287323,0.9368888735771179,1e-04
9.69383618212305e-05,1.0,0.5115681886672974,0.9366666674613953,1e-04
0.00012897378474008292,1.0,0.5113429427146912,0.9366666674613953,1e-04
0.00013005975051783025,1.0,0.5118924379348755,0.9366666674613953,1e-04
0.0001369734964100644,1.0,0.5121880173683167,0.9371111392974854,1e-04
0.00012487813364714384,1.0,0.5111520290374756,0.9371111392974854,1e-04
0.00011055185314035043,1.0,0.5100403428077698,0.9371111392974854,1e-04
0.00016663857968524098,1.0,0.5085756778717041,0.9368888735771179,1e-04
0.00024636060697957873,1.0,0.4945768117904663,0.9328888654708862,1e-04
0.00021581287728622556,1.0,0.49220582842826843,0.9328888654708862,1e-04
0.0001268587220693007,1.0,0.49302512407302856,0.933555543422699,1e-04
0.00014286294754128903,1.0,0.49624305963516235,0.9357777833938599,1e-04
0.00016894783766474575,1.0,0.49789491295814514,0.9364444613456726,1e-04
8.577312109991908e-05,1.0,0.5002581477165222,0.9371111392974854,1e-04
8.984757005237043e-05,1.0,0.5022773146629333,0.9371111392974854,1e-04
9.463982132729143e-05,1.0,0.5041719675064087,0.937333345413208,1e-04
0.00010611367179080844,1.0,0.5070502161979675,0.9375555515289307,1e-04
0.0001364966155961156,1.0,0.5086972117424011,0.9375555515289307,1e-04
0.00010679575643735006,1.0,0.5098842978477478,0.9366666674613953,1e-04
0.0001065116812242195,1.0,0.5106633901596069,0.9366666674613953,1e-04
0.00010720415593823418,1.0,0.5112006664276123,0.9371111392974854,1e-04
9.324757411377504e-05,1.0,0.5118668079376221,0.9371111392974854,1e-04
0.0001336264394922182,1.0,0.5126810669898987,0.9368888735771179,1e-04
0.00011559270933503285,1.0,0.5128243565559387,0.9366666674613953,1e-04
8.7070839072112e-05,1.0,0.5123839974403381,0.9366666674613953,1e-04
0.00013642132398672402,1.0,0.5129868984222412,0.9366666674613953,1e-04
0.00012959838204551488,1.0,0.5134183168411255,0.9366666674613953,1e-04
0.00015255874313879758,1.0,0.5086244940757751,0.9344444274902344,1e-04
0.00014304241631180048,1.0,0.508444607257843,0.9344444274902344,1e-04
8.296613668790087e-05,1.0,0.5098051428794861,0.9346666932106018,1e-04
7.897564501035959e-05,1.0,0.5114076733589172,0.9359999895095825,1e-04
0.0001099221408367157,1.0,0.5133907198905945,0.9362221956253052,1e-04
8.163341408362612e-05,1.0,0.5159317851066589,0.9371111392974854,1e-04
7.014360744506121e-05,1.0,0.5163538455963135,0.9368888735771179,1e-04
0.00016884780779946595,1.0,0.5183277726173401,0.9371111392974854,1e-04
0.00017893699987325817,1.0,0.515286386013031,0.9353333115577698,1e-04
0.00010462949285283685,1.0,0.5144116878509521,0.9353333115577698,1e-04
9.874199167825282e-05,1.0,0.5150623321533203,0.9362221956253052,1e-04
9.246008266927674e-05,1.0,0.5158173441886902,0.9368888735771179,1e-04
0.00012075239646947011,1.0,0.5155994892120361,0.937333345413208,1e-04
0.00010252132778987288,1.0,0.5160670876502991,0.937333345413208,1e-04
9.71993722487241e-05,1.0,0.5161508917808533,0.9375555515289307,1e-04
9.526546637061983e-05,1.0,0.5148844122886658,0.9371111392974854,1e-04
0.00011499632819322869,1.0,0.5157248377799988,0.9375555515289307,1e-04
0.00013277064135763794,1.0,0.5166328549385071,0.9368888735771179,1e-04
8.342575165443122e-05,1.0,0.5176635384559631,0.9371111392974854,1e-04
7.544500840594992e-05,1.0,0.5186328291893005,0.937333345413208,1e-04
9.356076043331996e-05,1.0,0.517548680305481,0.9364444613456726,1e-04
0.0005574053502641618,1.0,0.5167995095252991,0.9362221956253052,1e-04
0.00013897517055738717,1.0,0.513671875,0.9346666932106018,1e-04
0.00013206765288487077,1.0,0.510631263256073,0.9346666932106018,1e-04
0.00015483328024856746,1.0,0.5096356272697449,0.9340000152587891,1e-04
0.0001247078034793958,1.0,0.5091879367828369,0.9344444274902344,1e-04
0.00016102209337987006,1.0,0.5103318691253662,0.9353333115577698,1e-04
0.00010825412755366415,1.0,0.5119777917861938,0.9359999895095825,1e-04
0.00010908679541898891,1.0,0.513783872127533,0.9362221956253052,1e-04
0.00012193951260996982,1.0,0.5146231651306152,0.9364444613456726,1e-04
0.00013387152284849435,1.0,0.5159299969673157,0.9364444613456726,1e-04
8.699518366483971e-05,1.0,0.5163463950157166,0.9362221956253052,1e-04
9.108558151638135e-05,1.0,0.515993058681488,0.9362221956253052,1e-04
0.00017323378415312618,1.0,0.516180694103241,0.9355555772781372,1e-04
0.0001127292780438438,1.0,0.5162833333015442,0.9355555772781372,1e-04
0.00011881059617735445,1.0,0.5171726942062378,0.9357777833938599,1e-04
8.761842764215544e-05,1.0,0.5184507369995117,0.9362221956253052,1e-04
0.00017702984041534364,1.0,0.518393874168396,0.9366666674613953,1e-04
8.436728967353702e-05,1.0,0.5195632576942444,0.9375555515289307,1e-04
9.97186143649742e-05,1.0,0.5195149183273315,0.9371111392974854,1e-04
9.835327364271507e-05,1.0,0.5186834931373596,0.9362221956253052,1e-04
0.00012045566109009087,1.0,0.5183905363082886,0.9362221956253052,1e-04
0.00016393310215789825,1.0,0.5171181559562683,0.9364444613456726,1e-04
4.968327993992716e-05,1.0,0.5160428285598755,0.9362221956253052,1e-04
0.00017263556947000325,1.0,0.5157496333122253,0.9355555772781372,1e-04
8.276194421341643e-05,1.0,0.5156431794166565,0.9355555772781372,1e-04
7.933865708764642e-05,1.0,0.5164209008216858,0.9355555772781372,1e-04
0.0001120334563893266,1.0,0.5194312930107117,0.9366666674613953,1e-04
0.00012910811346955597,1.0,0.5212517380714417,0.9366666674613953,1e-04
0.00012307082943152636,1.0,0.5225147604942322,0.937333345413208,1e-04
0.00013260090781841427,1.0,0.5228661298751831,0.9368888735771179,1e-04
9.883160964818671e-05,1.0,0.5211437940597534,0.9362221956253052,1e-04
6.695017509628087e-05,1.0,0.5190852284431458,0.9357777833938599,1e-04
9.542996122036129e-05,1.0,0.517918586730957,0.9353333115577698,1e-04
0.0001042820222210139,1.0,0.5174779295921326,0.9355555772781372,1e-04
9.067807695828378e-05,1.0,0.5176806449890137,0.9357777833938599,1e-04
6.727802974637598e-05,1.0,0.5196903944015503,0.9371111392974854,1e-04
6.127829692559317e-05,1.0,0.5207961797714233,0.9371111392974854,1e-04
5.8955629356205463e-05,1.0,0.5209454298019409,0.9371111392974854,1e-04
6.009155549691059e-05,1.0,0.5205806493759155,0.9368888735771179,1e-04
5.552659058594145e-05,1.0,0.521061897277832,0.9368888735771179,1e-04
9.052203677129e-05,1.0,0.5205373764038086,0.9368888735771179,1e-04
0.00016848492668941617,1.0,0.5196713209152222,0.9366666674613953,1e-04
6.271668098634109e-05,1.0,0.5135684609413147,0.9344444274902344,1e-04
6.592566933250055e-05,1.0,0.5129674077033997,0.9344444274902344,1e-04
5.11413200001698e-05,1.0,0.5142949819564819,0.9357777833938599,1e-04
0.0001591823238413781,1.0,0.5185517072677612,0.9364444613456726,1e-04
8.21652720333077e-05,1.0,0.5228239297866821,0.9368888735771179,1e-04
7.662930875085294e-05,1.0,0.5247800946235657,0.9380000233650208,1e-04
0.00012782395060639828,1.0,0.523827075958252,0.9371111392974854,1e-04
5.759100167779252e-05,1.0,0.5211527347564697,0.9371111392974854,1e-04
9.839545236900449e-05,1.0,0.5226695537567139,0.9371111392974854,1e-04
5.9738002164522186e-05,1.0,0.5233352184295654,0.9368888735771179,1e-04
6.8756373366341e-05,1.0,0.5246175527572632,0.9368888735771179,1e-04
6.896227569086477e-05,1.0,0.5261995196342468,0.9368888735771179,1e-04
5.428367148851976e-05,1.0,0.5270914435386658,0.937333345413208,1e-04
6.663179374299943e-05,1.0,0.5264431238174438,0.937333345413208,1e-04
6.97397772455588e-05,1.0,0.5257683992385864,0.9368888735771179,1e-04
0.0001331739331362769,1.0,0.522468090057373,0.9362221956253052,1e-04
6.352175114443526e-05,1.0,0.5221254229545593,0.9366666674613953,1e-04
0.00012677288032136858,1.0,0.5218433141708374,0.9364444613456726,1e-04
5.002216130378656e-05,1.0,0.5210670828819275,0.9364444613456726,1e-04
5.494285869644955e-05,1.0,0.521063506603241,0.9364444613456726,1e-04
0.0001042769436025992,1.0,0.5209689736366272,0.9357777833938599,1e-04
7.014616130618379e-05,1.0,0.5200655460357666,0.9353333115577698,1e-04
4.863231151830405e-05,1.0,0.521182119846344,0.9362221956253052,1e-04
6.403287261491641e-05,1.0,0.5227766633033752,0.9371111392974854,1e-04
5.480529216583818e-05,1.0,0.5241069197654724,0.9371111392974854,1e-04
0.00010161363752558827,1.0,0.5213897228240967,0.9351111054420471,1e-04
6.938755541341379e-05,1.0,0.5206617712974548,0.9353333115577698,1e-04
3.968945748056285e-05,1.0,0.5205439329147339,0.9355555772781372,1e-04
9.928027429850772e-05,1.0,0.5229846835136414,0.9359999895095825,1e-04
5.3847612434765324e-05,1.0,0.5246722102165222,0.9366666674613953,1e-04
9.433911327505484e-05,1.0,0.5249931812286377,0.9371111392974854,1e-04
0.0001189455870189704,1.0,0.5268753170967102,0.937333345413208,1e-04
6.550944817718118e-05,1.0,0.527457058429718,0.9368888735771179,1e-04
8.922330744098872e-05,1.0,0.5280932784080505,0.9368888735771179,1e-04
7.721902511548251e-05,1.0,0.5269817113876343,0.9366666674613953,1e-04
5.739419793826528e-05,1.0,0.5269640684127808,0.9364444613456726,1e-04
0.00012171056732768193,1.0,0.5258803963661194,0.9355555772781372,1e-04
4.828874079976231e-05,1.0,0.5251074433326721,0.9355555772781372,1e-04
7.965625263750553e-05,1.0,0.5257322192192078,0.9362221956253052,1e-04
6.521832983708009e-05,1.0,0.5276788473129272,0.9364444613456726,1e-04
8.210810483433306e-05,1.0,0.5248549580574036,0.9355555772781372,1e-04
9.630959539208561e-05,1.0,0.5217982530593872,0.9353333115577698,1e-04
0.00012281887757126242,1.0,0.5229094624519348,0.9353333115577698,1e-04
6.293459591688588e-05,1.0,0.5273414254188538,0.9355555772781372,1e-04
7.965704571688548e-05,1.0,0.5318973064422607,0.9362221956253052,1e-04
3.630576975410804e-05,1.0,0.534416913986206,0.9366666674613953,1e-04
6.608876719838008e-05,1.0,0.5344213247299194,0.9368888735771179,1e-04
6.021761510055512e-05,1.0,0.5324448943138123,0.9362221956253052,1e-04
6.905620102770627e-05,1.0,0.5294278264045715,0.9357777833938599,1e-04
4.898358747595921e-05,1.0,0.5283282995223999,0.9359999895095825,1e-04
7.009026739979163e-05,1.0,0.5287481546401978,0.9362221956253052,1e-04
0.0001342813775409013,1.0,0.5314691662788391,0.9357777833938599,1e-04
0.00014281766198109835,1.0,0.5386624932289124,0.9362221956253052,1e-04
0.00010561005910858512,1.0,0.539722204208374,0.937333345413208,1e-04
0.00024380623653996736,1.0,0.5249247550964355,0.9271110892295837,1e-04
9.18082514544949e-05,1.0,0.5200645327568054,0.9286666512489319,1e-04
0.00010647286399034783,1.0,0.5170320272445679,0.9344444274902344,1e-04
7.661253039259464e-05,1.0,0.5208248496055603,0.9362221956253052,1e-04
8.882631664164364e-05,1.0,0.5255540609359741,0.9371111392974854,1e-04
5.628649523714557e-05,1.0,0.5261010527610779,0.9368888735771179,1e-04
0.00012674219033215195,1.0,0.5253188014030457,0.937333345413208,1e-04
8.36506878840737e-05,1.0,0.5259543061256409,0.9371111392974854,1e-04
7.057621405692771e-05,1.0,0.5247161984443665,0.937333345413208,1e-04
7.979237852850929e-05,1.0,0.5252837538719177,0.937333345413208,1e-04
7.920699135866016e-05,1.0,0.5284995436668396,0.937333345413208,1e-04
4.741862721857615e-05,1.0,0.5285010933876038,0.937333345413208,1e-04
6.304259295575321e-05,1.0,0.5285951495170593,0.937333345413208,1e-04
8.242545300163329e-05,1.0,0.5307406783103943,0.9375555515289307,1e-04
7.607357838423923e-05,1.0,0.5335046052932739,0.9380000233650208,1e-04
3.2741274480940774e-05,1.0,0.5346665978431702,0.9382222294807434,1e-04
4.604421337717213e-05,1.0,0.5338717699050903,0.9377777576446533,1e-04
3.754910721909255e-05,1.0,0.5337590575218201,0.9377777576446533,1e-04
4.9422738811699674e-05,1.0,0.5342410802841187,0.9377777576446533,1e-04
2.6392710424261168e-05,1.0,0.5340572595596313,0.9380000233650208,1e-04
5.2006460464326665e-05,1.0,0.5339956879615784,0.9380000233650208,1e-04
0.00014204993203748018,1.0,0.530207633972168,0.9380000233650208,1e-04
5.164311733096838e-05,1.0,0.5298166871070862,0.9377777576446533,1e-04
5.135241008247249e-05,1.0,0.5297574400901794,0.9377777576446533,1e-04
8.220823656301945e-05,1.0,0.5337334871292114,0.9380000233650208,1e-04
5.217441503191367e-05,1.0,0.5352017283439636,0.9377777576446533,1e-04
8.443356637144461e-05,1.0,0.5344930291175842,0.9375555515289307,1e-04
4.034360608784482e-05,1.0,0.5285661220550537,0.9348888993263245,1e-04
6.344537541735917e-05,1.0,0.5282489657402039,0.9348888993263245,1e-04
5.719095133827068e-05,1.0,0.5305466651916504,0.9364444613456726,1e-04
3.6699588235933334e-05,1.0,0.5328332781791687,0.937333345413208,1e-04
3.3232128771487623e-05,1.0,0.5337409377098083,0.9377777576446533,1e-04
5.575890827458352e-05,1.0,0.5351929068565369,0.9377777576446533,1e-04
3.6917670513503253e-05,1.0,0.5353537797927856,0.9375555515289307,1e-04
5.251976108411327e-05,1.0,0.5361320376396179,0.9371111392974854,1e-04
5.288582178764045e-05,1.0,0.5365214347839355,0.9371111392974854,1e-04
3.368191755726002e-05,1.0,0.5362880825996399,0.9371111392974854,1e-04
4.349107985035516e-05,1.0,0.5363985896110535,0.9368888735771179,1e-04
4.10564971389249e-05,1.0,0.5360718369483948,0.9368888735771179,1e-04
5.035646609030664e-05,1.0,0.5357062816619873,0.9366666674613953,1e-04
3.31651208398398e-05,1.0,0.5357975363731384,0.9366666674613953,1e-04
5.1008602895308286e-05,1.0,0.5367093682289124,0.9366666674613953,1e-04
4.232469655107707e-05,1.0,0.5361657738685608,0.9368888735771179,1e-04
6.245653639780357e-05,1.0,0.5337749719619751,0.9362221956253052,1e-04
3.738222221727483e-05,1.0,0.5322619080543518,0.9359999895095825,1e-04
5.65208938496653e-05,1.0,0.5332659482955933,0.9364444613456726,1e-04
5.1045892178080976e-05,1.0,0.5341726541519165,0.9364444613456726,1e-04
4.398806777317077e-05,1.0,0.5345720648765564,0.9371111392974854,1e-04
4.4398770114639774e-05,1.0,0.532703697681427,0.9362221956253052,1e-04
3.4251734177814797e-05,1.0,0.5312075018882751,0.9362221956253052,1e-04
8.973232615971938e-05,1.0,0.5348675847053528,0.9362221956253052,1e-04
4.7053366870386526e-05,1.0,0.5378095507621765,0.9366666674613953,1e-04
6.121527258073911e-05,1.0,0.5397792458534241,0.9375555515289307,1e-04
3.460656080278568e-05,1.0,0.5399020314216614,0.9371111392974854,1e-04
2.8676337024080567e-05,1.0,0.5392268896102905,0.9368888735771179,1e-04
6.430575012927875e-05,1.0,0.5378443598747253,0.9366666674613953,1e-04
3.1699684768682346e-05,1.0,0.5385333299636841,0.937333345413208,1e-04
6.57493801554665e-05,1.0,0.5371321439743042,0.937333345413208,1e-04
6.3251682149712e-05,1.0,0.5344052910804749,0.937333345413208,1e-04
3.564559665392153e-05,1.0,0.5354520678520203,0.9375555515289307,1e-04
7.88779798313044e-05,1.0,0.5363675355911255,0.9366666674613953,1e-04
4.4589782191906124e-05,1.0,0.5329004526138306,0.9359999895095825,1e-04
5.330684143700637e-05,1.0,0.5322645902633667,0.9346666932106018,1e-04
5.24829447385855e-05,1.0,0.5339031219482422,0.9348888993263245,1e-04
3.079484304180369e-05,1.0,0.5346634984016418,0.9357777833938599,1e-04
4.927097324980423e-05,1.0,0.53631991147995,0.9368888735771179,1e-04
5.122945731272921e-05,1.0,0.5374638438224792,0.9368888735771179,1e-04
4.0856917621567845e-05,1.0,0.5374314188957214,0.937333345413208,1e-04
4.474935485632159e-05,1.0,0.5354906916618347,0.9359999895095825,1e-04
5.150084325578064e-05,1.0,0.5331792235374451,0.9353333115577698,1e-04
4.51347186753992e-05,1.0,0.5322614908218384,0.9357777833938599,1e-04
4.190740582998842e-05,1.0,0.5343483090400696,0.9359999895095825,1e-04
4.665262167691253e-05,1.0,0.5373330116271973,0.9364444613456726,1e-04
4.5463235437637195e-05,1.0,0.5392862558364868,0.9371111392974854,1e-04
3.78386139345821e-05,1.0,0.5389031171798706,0.9368888735771179,1e-04
4.3255320633761585e-05,1.0,0.5391827821731567,0.9366666674613953,1e-04
0.00010892537102336064,1.0,0.5407271981239319,0.9364444613456726,1e-04
8.132416405715048e-05,1.0,0.5404955744743347,0.9348888993263245,1e-04
4.39306786574889e-05,1.0,0.5424451231956482,0.9328888654708862,1e-04
4.222863572067581e-05,1.0,0.541955828666687,0.9348888993263245,1e-04
6.04151064180769e-05,1.0,0.5411198139190674,0.9346666932106018,1e-04
2.8899678000016138e-05,1.0,0.5412290096282959,0.9355555772781372,1e-04
4.655817610910162e-05,1.0,0.5416561365127563,0.9359999895095825,1e-04
7.005529187154025e-05,1.0,0.5426193475723267,0.9364444613456726,1e-04
3.555645889719017e-05,1.0,0.5406089425086975,0.9359999895095825,1e-04
3.89223569072783e-05,1.0,0.5411401391029358,0.9366666674613953,1e-04
3.467790884315036e-05,1.0,0.5431181192398071,0.937333345413208,1e-04
9.159795445157215e-05,1.0,0.5419924855232239,0.9366666674613953,1e-04
7.825726788723841e-05,1.0,0.5418552756309509,0.9375555515289307,1e-04
3.4130200219806284e-05,1.0,0.5406104326248169,0.9371111392974854,1e-04
4.0454338886775076e-05,1.0,0.5407754182815552,0.937333345413208,1e-04
0.00018383515998721123,1.0,0.5439791679382324,0.9375555515289307,1e-04
4.355766577646136e-05,1.0,0.5456260442733765,0.9366666674613953,1e-04
4.418739626999013e-05,1.0,0.5462499260902405,0.9359999895095825,1e-04
3.9126560295699164e-05,1.0,0.5462202429771423,0.9362221956253052,1e-04
3.074635606026277e-05,1.0,0.5462831258773804,0.9362221956253052,1e-04
6.945397035451606e-05,1.0,0.5469710230827332,0.9371111392974854,1e-04
3.047874997719191e-05,1.0,0.5481240749359131,0.9375555515289307,1e-04
5.805953696835786e-05,1.0,0.5475669503211975,0.937333345413208,1e-04
7.423311762977391e-05,1.0,0.5475822687149048,0.9366666674613953,1e-04
3.094747808063403e-05,1.0,0.5508450269699097,0.9368888735771179,1e-04
5.218259320827201e-05,1.0,0.5502920746803284,0.9368888735771179,1e-04
4.769921724800952e-05,1.0,0.5445101261138916,0.9357777833938599,1e-04
2.7048508854932152e-05,1.0,0.5418018698692322,0.9348888993263245,1e-04
3.861826189677231e-05,1.0,0.5423728227615356,0.9359999895095825,1e-04
5.4423588153440505e-05,1.0,0.5460699796676636,0.9375555515289307,1e-04
3.088055018451996e-05,1.0,0.550444483757019,0.937333345413208,1e-04
2.830157791322563e-05,1.0,0.548933744430542,0.937333345413208,1e-04
2.2260517653194256e-05,1.0,0.5478070378303528,0.9375555515289307,1e-04
4.740079748444259e-05,1.0,0.5470125079154968,0.9371111392974854,1e-04
6.095890057622455e-05,1.0,0.5455527901649475,0.9342222213745117,1e-04
4.1129464079858735e-05,1.0,0.5475192666053772,0.9348888993263245,1e-04
3.000179276568815e-05,1.0,0.5487414002418518,0.9364444613456726,1e-04
2.596264130261261e-05,1.0,0.5495259761810303,0.9366666674613953,1e-04
5.0733357056742534e-05,1.0,0.5478817820549011,0.937333345413208,1e-04
4.6521585318259895e-05,1.0,0.5474546551704407,0.9377777576446533,1e-04
6.505317287519574e-05,1.0,0.5455291867256165,0.9366666674613953,1e-04
3.540402030921541e-05,1.0,0.5464731454849243,0.9366666674613953,1e-04
4.0911996620707214e-05,1.0,0.5476905107498169,0.9366666674613953,1e-04
9.332544141216204e-05,1.0,0.5499536395072937,0.9368888735771179,1e-04
3.2657138945069164e-05,1.0,0.5446683168411255,0.9340000152587891,1e-04
4.841681948164478e-05,1.0,0.5430393815040588,0.9346666932106018,1e-04
3.4254488127771765e-05,1.0,0.5432708859443665,0.9364444613456726,1e-04
2.4254670279333368e-05,1.0,0.5448960065841675,0.937333345413208,1e-04
2.7286036129225977e-05,1.0,0.5462012887001038,0.9375555515289307,1e-04
5.00080750498455e-05,1.0,0.5472813248634338,0.9382222294807434,1e-04
2.477842463122215e-05,1.0,0.5467377305030823,0.937333345413208,1e-04
8.225198689615354e-05,1.0,0.5379369258880615,0.9313333630561829,1e-04
3.252616079407744e-05,1.0,0.5376923084259033,0.933555543422699,1e-04
4.880619962932542e-05,1.0,0.5386905074119568,0.9357777833938599,1e-04
8.645114576211199e-05,1.0,0.5401191115379333,0.9366666674613953,1e-04
5.089685873826966e-05,1.0,0.5421623587608337,0.937333345413208,1e-04
2.590914664324373e-05,1.0,0.5438854694366455,0.9368888735771179,1e-04
4.387920489534736e-05,1.0,0.5437175631523132,0.9364444613456726,1e-04
3.557711897883564e-05,1.0,0.5455590486526489,0.9364444613456726,1e-04
3.0726045224582776e-05,1.0,0.5486570596694946,0.9371111392974854,1e-04
3.322710472275503e-05,1.0,0.5520028471946716,0.9371111392974854,1e-04
3.0502533263643272e-05,1.0,0.5543398857116699,0.9368888735771179,1e-04
2.2165120753925294e-05,1.0,0.5556807518005371,0.9371111392974854,1e-04
5.0615046347957104e-05,1.0,0.5524862408638,0.9366666674613953,1e-04
3.200111314072274e-05,1.0,0.5492075681686401,0.9359999895095825,1e-04
4.650713162845932e-05,1.0,0.5499396920204163,0.9362221956253052,1e-04
3.149362964904867e-05,1.0,0.5550084710121155,0.9382222294807434,1e-04
3.414192906348035e-05,1.0,0.5523166060447693,0.9375555515289307,1e-04
2.1229623598628677e-05,1.0,0.5526779890060425,0.9375555515289307,1e-04
6.566639785887673e-05,1.0,0.5542054772377014,0.9375555515289307,1e-04
2.411342393315863e-05,1.0,0.5552837252616882,0.9377777576446533,1e-04
2.837017564161215e-05,1.0,0.5538395643234253,0.9375555515289307,1e-04
5.062032141722739e-05,1.0,0.5544914603233337,0.9382222294807434,1e-04
2.159717223548796e-05,1.0,0.552300751209259,0.9377777576446533,1e-04
1.6306339603033848e-05,1.0,0.5519781708717346,0.937333345413208,1e-04
1.787230394256767e-05,1.0,0.5518280863761902,0.937333345413208,1e-04
3.031024789379444e-05,1.0,0.5532251596450806,0.937333345413208,1e-04
2.830375342455227e-05,1.0,0.5553550720214844,0.9375555515289307,1e-04
2.9185741368564777e-05,1.0,0.5559059977531433,0.9380000233650208,1e-04
0.00011044065468013287,1.0,0.5587520599365234,0.9380000233650208,1e-04
3.417871630517766e-05,1.0,0.5578306317329407,0.9353333115577698,1e-04
1.8422309949528426e-05,1.0,0.5577911138534546,0.9351111054420471,1e-04
2.639208105392754e-05,1.0,0.5573577284812927,0.9357777833938599,1e-04
0.00013873098941985518,1.0,0.5491638779640198,0.9315555691719055,1e-04
9.117894660448655e-05,1.0,0.5400608777999878,0.9371111392974854,1e-04
5.881075776414946e-05,1.0,0.5444435477256775,0.9386666417121887,1e-04
3.0474768209387548e-05,1.0,0.5484463572502136,0.9384444355964661,1e-04
6.121375190559775e-05,1.0,0.5501701235771179,0.9375555515289307,1e-04
4.9784510338213295e-05,1.0,0.5529045462608337,0.9368888735771179,1e-04
6.170928827486932e-05,1.0,0.5499128103256226,0.9357777833938599,1e-04
2.0338686226750724e-05,1.0,0.5467979311943054,0.9344444274902344,1e-04
2.430805761832744e-05,1.0,0.546754777431488,0.9353333115577698,1e-04
2.8764525268343277e-05,1.0,0.5464052557945251,0.9355555772781372,1e-04
3.8562491681659594e-05,1.0,0.5491414666175842,0.9375555515289307,1e-04
2.5002278562169522e-05,1.0,0.5516284108161926,0.9375555515289307,1e-04
2.1187994207139127e-05,1.0,0.5527458786964417,0.9375555515289307,1e-04
2.8418018700904213e-05,1.0,0.5518315434455872,0.9375555515289307,1e-04
2.2954171072342433e-05,1.0,0.5532463192939758,0.9375555515289307,1e-04
3.181245847372338e-05,1.0,0.5539106726646423,0.9375555515289307,1e-04
4.819371679332107e-05,1.0,0.5549342632293701,0.937333345413208,1e-04
1.376309955958277e-05,1.0,0.5561060905456543,0.9366666674613953,1e-04
2.5948726033675484e-05,1.0,0.5573562979698181,0.9371111392974854,1e-04
3.780653787543997e-05,1.0,0.5553350448608398,0.9366666674613953,1e-04
3.5823843063553795e-05,1.0,0.5451244115829468,0.9346666932106018,1e-04
2.540775494708214e-05,1.0,0.5441916584968567,0.9351111054420471,1e-04
2.9514583729906008e-05,1.0,0.5451874732971191,0.9362221956253052,1e-04
3.437723353272304e-05,1.0,0.5460249185562134,0.9364444613456726,1e-04
4.6788991312496364e-05,1.0,0.5483677387237549,0.937333345413208,1e-04
1.9748713384615257e-05,1.0,0.5512915849685669,0.9382222294807434,1e-04
4.6153119910741225e-05,1.0,0.5521715879440308,0.9384444355964661,1e-04
2.0271156245144084e-05,1.0,0.5521678328514099,0.9382222294807434,1e-04
3.7070127291372046e-05,1.0,0.5537583827972412,0.9377777576446533,1e-04
2.7405705623095855e-05,1.0,0.5565414428710938,0.9368888735771179,1e-04
3.1691943149780855e-05,1.0,0.5525661110877991,0.9351111054420471,1e-04
4.933305535814725e-05,1.0,0.5493136644363403,0.9326666593551636,1e-04
3.3829957828857005e-05,1.0,0.5504102110862732,0.9346666932106018,1e-04
1.649110345169902e-05,1.0,0.5542653799057007,0.9364444613456726,1e-04
4.7844976506894454e-05,1.0,0.5457765460014343,0.9346666932106018,1e-04
3.228372224839404e-05,1.0,0.5488582253456116,0.9375555515289307,1e-04
1.6143283573910594e-05,1.0,0.5536432266235352,0.9384444355964661,1e-04
2.3477739887312055e-05,1.0,0.5595377683639526,0.9391111135482788,1e-04
0.00011457185610197484,1.0,0.5477815866470337,0.9362221956253052,1e-04
4.922577863908373e-05,1.0,0.5622052550315857,0.9226666688919067,1e-04
4.156007707933895e-05,1.0,0.5610533952713013,0.9375555515289307,1e-04
3.959241075790487e-05,1.0,0.5685320496559143,0.9380000233650208,1e-04
3.462564927758649e-05,1.0,0.5503779053688049,0.9351111054420471,1e-04
3.4130909625673667e-05,1.0,0.5488736629486084,0.9326666593551636,1e-04
2.410371962469071e-05,1.0,0.5498037338256836,0.9324444532394409,1e-04
2.122861405950971e-05,1.0,0.5540978312492371,0.9362221956253052,1e-04
2.442536424496211e-05,1.0,0.556291401386261,0.9371111392974854,1e-04
3.6205205105943605e-05,1.0,0.5557711720466614,0.937333345413208,1e-04
2.5274615836679004e-05,1.0,0.5554728507995605,0.9371111392974854,1e-04
2.0063358533661813e-05,1.0,0.5586105585098267,0.9377777576446533,1e-04
2.2172596800373867e-05,1.0,0.5610530972480774,0.9380000233650208,1e-04
2.3305032300413586e-05,1.0,0.5627861022949219,0.9384444355964661,1e-04
1.366297419735929e-05,1.0,0.563901960849762,0.9386666417121887,1e-04
1.580549360369332e-05,1.0,0.5637595653533936,0.9382222294807434,1e-04
2.72520373982843e-05,1.0,0.5608850121498108,0.937333345413208,1e-04
1.8523349353927188e-05,1.0,0.5601346492767334,0.9371111392974854,1e-04
2.1611471311189234e-05,1.0,0.5625172257423401,0.9375555515289307,1e-04
2.8441141694202088e-05,1.0,0.5657550096511841,0.9375555515289307,1e-04
2.4636163288960233e-05,1.0,0.5657514929771423,0.9375555515289307,1e-04
1.2735488780890591e-05,1.0,0.5642715096473694,0.937333345413208,1e-04
1.2832117135985754e-05,1.0,0.5643612742424011,0.9375555515289307,1e-04
1.5692567103542387e-05,1.0,0.5647315382957458,0.937333345413208,1e-04
1.8371865735389292e-05,1.0,0.5672762989997864,0.9377777576446533,1e-04
2.5974541131290607e-05,1.0,0.5670775771141052,0.9377777576446533,1e-04
2.3826964024920017e-05,1.0,0.5671254992485046,0.9380000233650208,1e-04
1.827663800213486e-05,1.0,0.5682810544967651,0.9377777576446533,1e-04
1.67211182997562e-05,1.0,0.5679439306259155,0.9380000233650208,1e-04
1.3577702702605166e-05,1.0,0.5680438280105591,0.9380000233650208,1e-04
3.246841151849367e-05,1.0,0.5675140619277954,0.9371111392974854,1e-04
1.8177792298956774e-05,1.0,0.5659122467041016,0.9375555515289307,1e-04
1.610888102732133e-05,1.0,0.5632993578910828,0.9368888735771179,1e-04
2.24790219363058e-05,1.0,0.5649768114089966,0.9371111392974854,1e-04
1.914745371323079e-05,1.0,0.5669574737548828,0.9377777576446533,1e-04
1.0920819477178156e-05,1.0,0.5691957473754883,0.9380000233650208,1e-04
1.9680304831126705e-05,1.0,0.5695272088050842,0.9377777576446533,1e-04
2.8670168831013143e-05,1.0,0.5709298849105835,0.9375555515289307,1e-04
2.254796345368959e-05,1.0,0.5696277022361755,0.937333345413208,1e-04
1.4542832104780246e-05,1.0,0.5694605112075806,0.937333345413208,1e-04
1.7008283975883387e-05,1.0,0.5691078305244446,0.9375555515289307,1e-04
1.6909260011743754e-05,1.0,0.5677109360694885,0.9368888735771179,1e-04
2.0114583094255067e-05,1.0,0.5643430352210999,0.9364444613456726,1e-04
1.9546952898963355e-05,1.0,0.5638744831085205,0.9371111392974854,1e-04
1.5274381439667195e-05,1.0,0.5660547614097595,0.9380000233650208,1e-04
3.136773011647165e-05,1.0,0.566736102104187,0.9377777576446533,1e-04
2.5382989406352863e-05,1.0,0.5635895729064941,0.9371111392974854,1e-04
1.6669540855218656e-05,1.0,0.5614732503890991,0.9368888735771179,1e-04
2.5100369384745136e-05,1.0,0.5603694319725037,0.9359999895095825,1e-04
1.803266604838427e-05,1.0,0.5604963898658752,0.9348888993263245,1e-04
1.6023081116145477e-05,1.0,0.5617527961730957,0.9351111054420471,1e-04
1.1541198546183296e-05,1.0,0.5641387104988098,0.9362221956253052,1e-04
2.7966245397692546e-05,1.0,0.5694389939308167,0.9375555515289307,1e-04
1.734394572849851e-05,1.0,0.5716282725334167,0.9375555515289307,1e-04
2.1783565898658708e-05,1.0,0.5716867446899414,0.937333345413208,1e-04
1.5885674656601623e-05,1.0,0.5711568593978882,0.9368888735771179,1e-04
1.3300930731929839e-05,1.0,0.5709496736526489,0.937333345413208,1e-04
1.1697224181261845e-05,1.0,0.5713028907775879,0.9380000233650208,1e-04
1.3173595107218716e-05,1.0,0.5714356303215027,0.9382222294807434,1e-04
1.4970281881687697e-05,1.0,0.5688888430595398,0.9371111392974854,1e-04
1.2585198419401422e-05,1.0,0.5669150948524475,0.9364444613456726,1e-04
1.2625442650460172e-05,1.0,0.5663306713104248,0.9362221956253052,1e-04
1.3310537724464666e-05,1.0,0.569263756275177,0.9375555515289307,1e-04
1.2384713954816107e-05,1.0,0.5710153579711914,0.9380000233650208,1e-04
2.2421892936108634e-05,1.0,0.5703990459442139,0.9380000233650208,1e-04
3.0611088732257485e-05,1.0,0.563998281955719,0.9377777576446533,1e-04
1.5279953004210256e-05,1.0,0.5624151229858398,0.9364444613456726,1e-04
1.8389446267974563e-05,1.0,0.5622290968894958,0.9366666674613953,1e-04
2.0387426047818735e-05,1.0,0.5615893602371216,0.9364444613456726,1e-04
1.480736773373792e-05,1.0,0.5629124641418457,0.9368888735771179,1e-04
1.452294600312598e-05,1.0,0.5639853477478027,0.937333345413208,1e-04
5.13745762873441e-05,1.0,0.5603854656219482,0.9364444613456726,1e-04
1.8700651708059013e-05,1.0,0.5517975687980652,0.9326666593551636,1e-04
1.6792946553323418e-05,1.0,0.5509129166603088,0.9348888993263245,1e-04
1.1280121725576464e-05,1.0,0.5546112060546875,0.9368888735771179,1e-04
1.3396001122600865e-05,1.0,0.5620797276496887,0.9384444355964661,1e-04
1.7986652892432176e-05,1.0,0.5649006366729736,0.9377777576446533,1e-04
8.756212082516868e-06,1.0,0.5676973462104797,0.937333345413208,1e-04
1.2135741599195171e-05,1.0,0.570330798625946,0.937333345413208,1e-04
2.14371393667534e-05,1.0,0.5694938898086548,0.9375555515289307,1e-04
3.196292163920589e-05,1.0,0.5715749263763428,0.9377777576446533,1e-04
1.2977764527022373e-05,1.0,0.5760198831558228,0.9377777576446533,1e-04
1.3537377526517957e-05,1.0,0.5769753456115723,0.9377777576446533,1e-04
1.6736194083932787e-05,1.0,0.5776136517524719,0.9377777576446533,1e-04
1.1995846762147266e-05,1.0,0.5752468109130859,0.9377777576446533,1e-04
1.1873585208377335e-05,1.0,0.574218213558197,0.9377777576446533,1e-04
2.760111601673998e-05,1.0,0.5719816088676453,0.9357777833938599,1e-04
1.5840034393477254e-05,1.0,0.5735785961151123,0.9355555772781372,1e-04
1.615521432540845e-05,1.0,0.577011227607727,0.9371111392974854,1e-04
1.5612473362125456e-05,1.0,0.5820819139480591,0.9377777576446533,1e-04
1.74039596458897e-05,1.0,0.5811046361923218,0.9380000233650208,1e-04
2.0194900571368635e-05,1.0,0.5766018629074097,0.9377777576446533,1e-04
1.7387304978910834e-05,1.0,0.5744539499282837,0.937333345413208,1e-04
2.1804786229040474e-05,1.0,0.5753584504127502,0.9380000233650208,1e-04
1.0925870810751803e-05,1.0,0.5754153728485107,0.9384444355964661,1e-04
2.185157973144669e-05,1.0,0.5754971504211426,0.9380000233650208,1e-04
7.990628546394873e-06,1.0,0.5742294192314148,0.9382222294807434,1e-04
8.144964340317529e-06,1.0,0.575323760509491,0.9380000233650208,1e-04
1.7479218513472006e-05,1.0,0.5751204490661621,0.9380000233650208,1e-04
9.00449504115386e-06,1.0,0.5753042697906494,0.9380000233650208,1e-04
1.3947975276096258e-05,1.0,0.5757156610488892,0.9380000233650208,1e-04
1.2951890312251635e-05,1.0,0.5724866390228271,0.9380000233650208,1e-04
7.029167136352044e-06,1.0,0.5715575814247131,0.9377777576446533,1e-04
2.1960038793622516e-05,1.0,0.5739363431930542,0.9382222294807434,1e-04
2.0558001779136248e-05,1.0,0.5772319436073303,0.9380000233650208,1e-04
1.384333154419437e-05,1.0,0.5761010646820068,0.937333345413208,1e-04
1.2398187209328171e-05,1.0,0.5765807032585144,0.937333345413208,1e-04
7.897930117906071e-06,1.0,0.5775028467178345,0.9375555515289307,1e-04
1.7304524590144865e-05,1.0,0.5752153396606445,0.9368888735771179,1e-04
8.823699317872524e-06,1.0,0.570972740650177,0.9342222213745117,1e-04
2.412143840047065e-05,1.0,0.5736109018325806,0.9368888735771179,1e-04
1.3374658919929061e-05,1.0,0.577785074710846,0.9384444355964661,1e-04
1.4212476344255265e-05,1.0,0.5798094868659973,0.9384444355964661,1e-04
2.3760045223752968e-05,1.0,0.5763151049613953,0.9384444355964661,1e-04
4.618028469849378e-05,1.0,0.5608107447624207,0.9344444274902344,1e-04
1.8043523596134037e-05,1.0,0.5534068942070007,0.933555543422699,1e-04
1.7541691704536788e-05,1.0,0.5573041439056396,0.9357777833938599,1e-04
1.7931442926055752e-05,1.0,0.5662949681282043,0.9377777576446533,1e-04
9.48105844145175e-06,1.0,0.5720090866088867,0.937333345413208,1e-04
8.762069228396285e-06,1.0,0.5738183259963989,0.9377777576446533,1e-04
1.2961048923898488e-05,1.0,0.5749076008796692,0.9377777576446533,1e-04
1.9150314983562566e-05,1.0,0.5778980255126953,0.937333345413208,1e-04
1.1091205124102999e-05,1.0,0.5791303515434265,0.9375555515289307,1e-04
9.450376637687441e-06,1.0,0.5783127546310425,0.937333345413208,1e-04
1.0913756341324188e-05,1.0,0.5790982246398926,0.9377777576446533,1e-04
1.5678713680244982e-05,1.0,0.5767096877098083,0.9375555515289307,1e-04
1.9745286408578977e-05,1.0,0.5749378204345703,0.937333345413208,1e-04
1.3051424502918962e-05,1.0,0.5719547271728516,0.9368888735771179,1e-04
1.1063050806114916e-05,1.0,0.5736277103424072,0.937333345413208,1e-04
2.164902434742544e-05,1.0,0.5757630467414856,0.9380000233650208,1e-04
1.0939959793176968e-05,1.0,0.5753680467605591,0.9380000233650208,1e-04
2.2745365640730597e-05,1.0,0.5739138722419739,0.9375555515289307,1e-04
9.35250318434555e-06,1.0,0.575472891330719,0.9380000233650208,1e-04
1.2584517207869794e-05,1.0,0.5748401284217834,0.9375555515289307,1e-04
1.5103701116458979e-05,1.0,0.575505256652832,0.937333345413208,1e-04
6.506555564556038e-06,1.0,0.5763909220695496,0.9371111392974854,1e-04
1.0796401511470322e-05,1.0,0.5793700814247131,0.9375555515289307,1e-04
1.1733524843293708e-05,1.0,0.5790806412696838,0.9375555515289307,1e-04
1.3257684258860536e-05,1.0,0.5738245844841003,0.937333345413208,1e-04
1.0612333426252007e-05,1.0,0.570732057094574,0.9368888735771179,1e-04
1.5618239558534697e-05,1.0,0.5717570781707764,0.9366666674613953,1e-04
9.298795703216456e-06,1.0,0.575356662273407,0.937333345413208,1e-04
1.1180812180100475e-05,1.0,0.5792277455329895,0.9380000233650208,1e-04
1.289912688662298e-05,1.0,0.5803219676017761,0.9380000233650208,1e-04
1.1737726708815899e-05,1.0,0.580536961555481,0.9384444355964661,1e-04
7.194792033260455e-06,1.0,0.580722987651825,0.9384444355964661,1e-04
1.3840757674188353e-05,1.0,0.5779192447662354,0.9362221956253052,1e-04
6.564744580828119e-06,1.0,0.5776694416999817,0.9362221956253052,1e-04
7.2827720032364596e-06,1.0,0.5792480707168579,0.9368888735771179,1e-04
8.636326128907967e-06,1.0,0.580578088760376,0.937333345413208,1e-04
5.967419838270871e-06,1.0,0.5821970105171204,0.9380000233650208,1e-04
7.83107680035755e-06,1.0,0.583014726638794,0.9384444355964661,1e-04
5.304545629769564e-05,1.0,0.5758652091026306,0.9384444355964661,1e-04
7.216619451355655e-06,1.0,0.5655398964881897,0.9388889074325562,1e-04
8.969460395746864e-06,1.0,0.5642011761665344,0.9384444355964661,1e-04
3.9524296880699694e-05,1.0,0.5653374195098877,0.9340000152587891,1e-04
1.794325180526357e-05,1.0,0.5676405429840088,0.9342222213745117,1e-04
1.1288534551567864e-05,1.0,0.5715686678886414,0.9362221956253052,1e-04
8.117609468172304e-06,1.0,0.572620689868927,0.9366666674613953,1e-04
1.319216698902892e-05,1.0,0.5698896050453186,0.9340000152587891,1e-04
1.0567182471277192e-05,1.0,0.57278972864151,0.9359999895095825,1e-04
2.472069172654301e-05,1.0,0.578389048576355,0.9377777576446533,1e-04
8.49547086545499e-06,1.0,0.5816695094108582,0.9377777576446533,1e-04
3.168181501678191e-05,1.0,0.5928319096565247,0.9386666417121887,1e-04
7.719017048657406e-06,1.0,0.5930584073066711,0.9375555515289307,1e-04
1.1293373972875997e-05,1.0,0.5930849313735962,0.9371111392974854,1e-04
1.9716097085620277e-05,1.0,0.58888179063797,0.9306666851043701,1e-04
1.6552299712202512e-05,1.0,0.5882184505462646,0.9333333373069763,1e-04
7.850280780985486e-06,1.0,0.5971285700798035,0.9377777576446533,1e-04
8.020481800485868e-06,1.0,0.5968306660652161,0.9377777576446533,1e-04
8.195906048058532e-06,1.0,0.5961670875549316,0.9371111392974854,1e-04
1.100773715734249e-05,1.0,0.593360960483551,0.937333345413208,1e-04
1.9397832147660665e-05,1.0,0.5865581631660461,0.937333345413208,1e-04
9.799146937439218e-06,1.0,0.5840363502502441,0.937333345413208,1e-04
1.2056239938829094e-05,1.0,0.5834345817565918,0.9368888735771179,1e-04
1.1292229828541167e-05,1.0,0.5808063745498657,0.9359999895095825,1e-04
1.4231437489797827e-05,1.0,0.5814387798309326,0.9359999895095825,1e-04
6.009220214764355e-06,1.0,0.5815783143043518,0.9366666674613953,1e-04
3.447353083174676e-05,1.0,0.6073833107948303,0.9259999990463257,1e-04
3.575323353288695e-05,1.0,0.6184273362159729,0.9359999895095825,1e-04
1.5044554857013281e-05,1.0,0.6350078582763672,0.9388889074325562,1e-04
1.4636112609878182e-05,1.0,0.5982067584991455,0.9346666932106018,1e-04
3.184748857165687e-05,1.0,0.5900087952613831,0.9351111054420471,1e-04
3.68384389730636e-05,1.0,0.5959500670433044,0.9391111135482788,1e-04
9.402496652910486e-05,1.0,0.5551700592041016,0.9251111149787903,1e-04
6.18849226157181e-05,1.0,0.5916488170623779,0.9222221970558167,1e-04
0.00012050002987962216,1.0,0.5949462652206421,0.9337777495384216,1e-04
0.008905477821826935,0.9980000257492065,0.5290344953536987,0.937333345413208,1e-04
0.019021818414330482,0.9919999837875366,1.6809054613113403,0.6831111311912537,1e-04
0.0492597259581089,0.9860000014305115,0.6997646689414978,0.9331111311912537,1e-04
0.018551208078861237,0.9940000176429749,0.73091059923172,0.9382222294807434,1e-04
0.013696907088160515,0.9919999837875366,0.7846479415893555,0.9386666417121887,1e-04
0.002335536992177367,1.0,0.750342071056366,0.9308888912200928,1e-04
0.002056889468804002,1.0,0.7228227257728577,0.9279999732971191,1e-04
0.0011804640525951982,1.0,0.6868543028831482,0.9300000071525574,1e-04
0.000627232133410871,1.0,0.658700704574585,0.9306666851043701,1e-04
0.0005617962451651692,1.0,0.6395917534828186,0.9322222471237183,1e-04
0.0008536828099749982,1.0,0.6271390318870544,0.9319999814033508,1e-04
0.000642942963168025,1.0,0.6155006289482117,0.9324444532394409,1e-04
0.000625023094471544,1.0,0.601972758769989,0.9328888654708862,1e-04
0.0005485703004524112,1.0,0.5929368138313293,0.9331111311912537,1e-04
0.0005159240681678057,1.0,0.5854840874671936,0.9331111311912537,1e-04
0.0005550470668822527,1.0,0.5784923434257507,0.9328888654708862,1e-04
0.00030276866164058447,1.0,0.5730305314064026,0.9331111311912537,1e-04
0.00028252843185327947,1.0,0.5678103566169739,0.9337777495384216,1e-04
0.0003134035796392709,1.0,0.5631279945373535,0.9340000152587891,1e-04
0.00043527554953470826,1.0,0.5608251690864563,0.9333333373069763,1e-04
0.00048435977078042924,1.0,0.5577589869499207,0.9337777495384216,1e-04
0.00038638603291474283,1.0,0.5531145334243774,0.9331111311912537,1e-04
0.00027585308998823166,1.0,0.5498037934303284,0.9340000152587891,1e-04
0.00026808565598912537,1.0,0.5478997230529785,0.9337777495384216,1e-04
0.00023685656196903437,1.0,0.5465965867042542,0.9340000152587891,1e-04
0.00029787662788294256,1.0,0.5456573963165283,0.933555543422699,1e-04
0.0002418643271084875,1.0,0.5448931455612183,0.9333333373069763,1e-04
0.0003988659882452339,1.0,0.5440301895141602,0.9342222213745117,1e-04
0.00019328200141899288,1.0,0.5433522462844849,0.9340000152587891,1e-04
0.00022855315182823688,1.0,0.543516218662262,0.9340000152587891,1e-04
0.00020139821572229266,1.0,0.543480396270752,0.9337777495384216,1e-04
0.00014851150626782328,1.0,0.5433314442634583,0.9340000152587891,1e-04
0.000223445167648606,1.0,0.542885422706604,0.933555543422699,1e-04
0.00022326542239170521,1.0,0.5423450469970703,0.9337777495384216,1e-04
0.00021560429013334215,1.0,0.5413786768913269,0.9333333373069763,1e-04
0.00023008184507489204,1.0,0.5409098863601685,0.9337777495384216,1e-04
0.000166904937941581,1.0,0.5405629277229309,0.9337777495384216,1e-04
0.00015034015814308077,1.0,0.5406968593597412,0.933555543422699,1e-04
0.0002373763418290764,1.0,0.539951503276825,0.9337777495384216,1e-04
0.0002060816768789664,1.0,0.5400640368461609,0.9337777495384216,1e-04
0.0001337914727628231,1.0,0.5406961441040039,0.9340000152587891,1e-04
0.00014571294013876468,1.0,0.5412167906761169,0.933555543422699,1e-04
0.00015923222235869616,1.0,0.5417290925979614,0.9333333373069763,1e-04
0.00020493156625889242,1.0,0.5425347685813904,0.9337777495384216,1e-04
0.00016949986456893384,1.0,0.5428619980812073,0.9337777495384216,1e-04
0.00011720274051185697,1.0,0.5432975888252258,0.9337777495384216,1e-04
0.00013277643301989883,1.0,0.543251097202301,0.9337777495384216,1e-04
0.00011738484317902476,1.0,0.5433610677719116,0.9340000152587891,1e-04
0.00011134530359413475,1.0,0.5437484979629517,0.9340000152587891,1e-04
0.00014803255908191204,1.0,0.5443042516708374,0.9340000152587891,1e-04
0.00018128423835150898,1.0,0.5453727841377258,0.9340000152587891,1e-04
9.317394869867712e-05,1.0,0.5459713935852051,0.9340000152587891,1e-04
0.0001226332096848637,1.0,0.5464231371879578,0.9337777495384216,1e-04
0.0001712742814561352,1.0,0.5455026626586914,0.9340000152587891,1e-04
0.0001501126098446548,1.0,0.5454118251800537,0.9340000152587891,1e-04
0.00015850141062401235,1.0,0.5458037257194519,0.9340000152587891,1e-04
0.0001265755417989567,1.0,0.5466492176055908,0.9340000152587891,1e-04
0.00014694278070237488,1.0,0.5463820695877075,0.9340000152587891,1e-04
0.00013003985804971308,1.0,0.5461020469665527,0.9340000152587891,1e-04
9.19894446269609e-05,1.0,0.54669588804245,0.9340000152587891,1e-04
0.00010081469372380525,1.0,0.5475987792015076,0.9342222213745117,1e-04
0.00014042553084436804,1.0,0.54840087890625,0.9337777495384216,1e-04
0.00019799683650489897,1.0,0.5483731031417847,0.9340000152587891,1e-04
0.00017452394240535796,1.0,0.5481775403022766,0.9337777495384216,1e-04
9.717779903439805e-05,1.0,0.5480879545211792,0.9337777495384216,1e-04
0.0002232474653283134,1.0,0.5507141947746277,0.9344444274902344,1e-04
0.0001417926832800731,1.0,0.5515286922454834,0.9342222213745117,1e-04
9.911825327435508e-05,1.0,0.5524863004684448,0.9342222213745117,1e-04
0.00010028991528088227,1.0,0.5534060597419739,0.9340000152587891,1e-04
7.378182635875419e-05,1.0,0.554039716720581,0.9340000152587891,1e-04
7.219226972665638e-05,1.0,0.5544931888580322,0.9340000152587891,1e-04
5.5190841521834955e-05,1.0,0.5548633337020874,0.9340000152587891,1e-04
9.269877045881003e-05,1.0,0.5554777383804321,0.933555543422699,1e-04
9.529479575576261e-05,1.0,0.5563617944717407,0.933555543422699,1e-04
0.000112068337330129,1.0,0.5565996766090393,0.933555543422699,1e-04
7.636249938514084e-05,1.0,0.5566494464874268,0.933555543422699,1e-04
8.201652235584334e-05,1.0,0.5569460988044739,0.933555543422699,1e-04
7.86501623224467e-05,1.0,0.5574917793273926,0.933555543422699,1e-04
0.00011156908294651657,1.0,0.558035671710968,0.9337777495384216,1e-04
0.00010179851233260706,1.0,0.5588390827178955,0.9340000152587891,1e-04
7.46974183130078e-05,1.0,0.5592964291572571,0.9340000152587891,1e-04
8.76174817676656e-05,1.0,0.5598551630973816,0.9342222213745117,1e-04
9.362731361761689e-05,1.0,0.5600952506065369,0.9340000152587891,1e-04
8.717979653738439e-05,1.0,0.5600761771202087,0.9337777495384216,1e-04
9.700090595288202e-05,1.0,0.5600738525390625,0.9337777495384216,1e-04
6.632830627495423e-05,1.0,0.5606669187545776,0.9337777495384216,1e-04
0.0001322753814747557,1.0,0.5616261959075928,0.9340000152587891,1e-04
9.862161823548377e-05,1.0,0.5625996589660645,0.9340000152587891,1e-04
6.628326082136482e-05,1.0,0.5629456639289856,0.9340000152587891,1e-04
5.926573430770077e-05,1.0,0.5634123682975769,0.9340000152587891,1e-04
6.219855276867747e-05,1.0,0.5638312101364136,0.9340000152587891,1e-04
7.57541783968918e-05,1.0,0.5639058351516724,0.9340000152587891,1e-04
5.3036688768770546e-05,1.0,0.5642890930175781,0.9340000152587891,1e-04
4.757607530336827e-05,1.0,0.5645701289176941,0.9340000152587891,1e-04
0.00016290378698613495,1.0,0.5650627017021179,0.933555543422699,1e-04
4.520607035374269e-05,1.0,0.5659302473068237,0.9333333373069763,1e-04
6.439875141950324e-05,1.0,0.5666871070861816,0.9331111311912537,1e-04
4.8121011786861345e-05,1.0,0.5668712854385376,0.9331111311912537,1e-04
8.102619904093444e-05,1.0,0.5672259330749512,0.9333333373069763,1e-04
0.00010351442324463278,1.0,0.5673136115074158,0.933555543422699,1e-04
4.9293568736175075e-05,1.0,0.5675830245018005,0.933555543422699,1e-04
8.779526251601055e-05,1.0,0.5671989917755127,0.9331111311912537,1e-04
6.228195707080886e-05,1.0,0.5671972632408142,0.9331111311912537,1e-04
7.872466085245833e-05,1.0,0.5680381655693054,0.9331111311912537,1e-04
7.772086246404797e-05,1.0,0.5689518451690674,0.9337777495384216,1e-04
9.907914500217885e-05,1.0,0.5696611404418945,0.9340000152587891,1e-04
4.494232052820735e-05,1.0,0.5700801014900208,0.9340000152587891,1e-04
5.3684456361224875e-05,1.0,0.5702546834945679,0.9340000152587891,1e-04
6.362597196130082e-05,1.0,0.5704066157341003,0.9340000152587891,1e-04
4.270761564839631e-05,1.0,0.5705726146697998,0.9340000152587891,1e-04
7.730708603048697e-05,1.0,0.5708176493644714,0.9340000152587891,1e-04
7.753619138384238e-05,1.0,0.5710155963897705,0.9337777495384216,1e-04
5.020904427510686e-05,1.0,0.5711437463760376,0.933555543422699,1e-04
3.818127152044326e-05,1.0,0.5712379813194275,0.933555543422699,1e-04
0.0002016252401517704,1.0,0.5713697671890259,0.9337777495384216,1e-04
5.253733979770914e-05,1.0,0.5716693997383118,0.933555543422699,1e-04
7.320142321987078e-05,1.0,0.5717408061027527,0.933555543422699,1e-04
6.424651655834168e-05,1.0,0.5720909833908081,0.933555543422699,1e-04
5.8046036429004744e-05,1.0,0.5723894834518433,0.933555543422699,1e-04
6.914394907653332e-05,1.0,0.5724992752075195,0.933555543422699,1e-04
0.00018896673282142729,1.0,0.5729944705963135,0.9337777495384216,1e-04
5.607454659184441e-05,1.0,0.5727709531784058,0.9333333373069763,1e-04
5.238605444901623e-05,1.0,0.5731022953987122,0.9333333373069763,1e-04
6.636400939896703e-05,1.0,0.5737498998641968,0.9333333373069763,1e-04
5.6763950851745903e-05,1.0,0.574252188205719,0.933555543422699,1e-04
5.5212807637872174e-05,1.0,0.5747948884963989,0.933555543422699,1e-04
0.00012418800906743854,1.0,0.575137197971344,0.9342222213745117,1e-04
4.638986138161272e-05,1.0,0.5755623579025269,0.9340000152587891,1e-04
4.1746683564269915e-05,1.0,0.5759137868881226,0.9340000152587891,1e-04
4.7893059672787786e-05,1.0,0.5760172009468079,0.9344444274902344,1e-04
2.6882669772021472e-05,1.0,0.5757554769515991,0.9344444274902344,1e-04
3.379271220183e-05,1.0,0.5760300755500793,0.9344444274902344,1e-04
3.213252784917131e-05,1.0,0.5763939619064331,0.9346666932106018,1e-04
5.399891597335227e-05,1.0,0.5765347480773926,0.9346666932106018,1e-04
6.59609358990565e-05,1.0,0.5768918991088867,0.9344444274902344,1e-04
5.101116403238848e-05,1.0,0.577105700969696,0.9342222213745117,1e-04
3.22159357892815e-05,1.0,0.5772864818572998,0.9342222213745117,1e-04
4.661200364353135e-05,1.0,0.5779930353164673,0.9344444274902344,1e-04
8.666293433634564e-05,1.0,0.5782775282859802,0.9346666932106018,1e-04
4.960196383763105e-05,1.0,0.5781923532485962,0.9346666932106018,1e-04
5.3306557674659416e-05,1.0,0.5783330202102661,0.9346666932106018,1e-04
4.4514603359857574e-05,1.0,0.5788618326187134,0.9346666932106018,1e-04
5.8234156313119456e-05,1.0,0.5787021517753601,0.9346666932106018,1e-04
4.1778006561798975e-05,1.0,0.578731894493103,0.9346666932106018,1e-04
6.664426473435014e-05,1.0,0.5801255106925964,0.9344444274902344,1e-04
3.390602796571329e-05,1.0,0.5811982154846191,0.9344444274902344,1e-04
5.356000110623427e-05,1.0,0.5815693736076355,0.9346666932106018,1e-04
5.846596468472853e-05,1.0,0.5817774534225464,0.9346666932106018,1e-04
3.871865919791162e-05,1.0,0.5819183588027954,0.9346666932106018,1e-04
4.183081182418391e-05,1.0,0.5824061632156372,0.9346666932106018,1e-04
6.014082100591622e-05,1.0,0.5828816890716553,0.9346666932106018,1e-04
9.547660010866821e-05,1.0,0.5826918482780457,0.9342222213745117,1e-04
4.464270023163408e-05,1.0,0.5824010968208313,0.9342222213745117,1e-04
4.257055479683913e-05,1.0,0.5825876593589783,0.9342222213745117,1e-04
4.292856829124503e-05,1.0,0.5829078555107117,0.9342222213745117,1e-04
3.704690243466757e-05,1.0,0.582996129989624,0.9342222213745117,1e-04
5.46757728443481e-05,1.0,0.5833178758621216,0.9342222213745117,1e-04
2.6231948140775785e-05,1.0,0.5833280086517334,0.9340000152587891,1e-04
3.210961222066544e-05,1.0,0.5834545493125916,0.9342222213745117,1e-04
2.2576112314709462e-05,1.0,0.5836693644523621,0.9342222213745117,1e-04
2.929734910139814e-05,1.0,0.5838192701339722,0.9340000152587891,1e-04
2.920691986219026e-05,1.0,0.5839540362358093,0.9342222213745117,1e-04
3.2030260626925156e-05,1.0,0.5840959548950195,0.9342222213745117,1e-04
3.465560439508408e-05,1.0,0.5845741629600525,0.9342222213745117,1e-04
4.401768819661811e-05,1.0,0.5847902297973633,0.9342222213745117,1e-04
2.8954038498341106e-05,1.0,0.5846834778785706,0.9346666932106018,1e-04
2.6918176445178688e-05,1.0,0.584730327129364,0.9346666932106018,1e-04
3.2441057555843145e-05,1.0,0.5848886966705322,0.9346666932106018,1e-04
4.7638914111303166e-05,1.0,0.585070788860321,0.9346666932106018,1e-04
4.0162205550586805e-05,1.0,0.5854764580726624,0.9346666932106018,1e-04
2.1263120288494974e-05,1.0,0.5857752561569214,0.9346666932106018,1e-04
3.299165837233886e-05,1.0,0.5859420299530029,0.9346666932106018,1e-04
3.8123725971672684e-05,1.0,0.5861778855323792,0.9346666932106018,1e-04
2.2597680072067305e-05,1.0,0.5859023928642273,0.9346666932106018,1e-04
2.713023786782287e-05,1.0,0.5860336422920227,0.9346666932106018,1e-04
4.348270158516243e-05,1.0,0.5862982273101807,0.9346666932106018,1e-04
3.6781319067813456e-05,1.0,0.5865219831466675,0.9346666932106018,1e-04
2.4121620299411006e-05,1.0,0.5864642858505249,0.9346666932106018,1e-04
3.452668170211837e-05,1.0,0.5868204236030579,0.9346666932106018,1e-04
3.1291179766412824e-05,1.0,0.5872843861579895,0.9346666932106018,1e-04
2.602744280011393e-05,1.0,0.5878224968910217,0.9346666932106018,1e-04
2.710051012400072e-05,1.0,0.5881905555725098,0.9346666932106018,1e-04
3.225046384613961e-05,1.0,0.5887466669082642,0.9346666932106018,1e-04
3.926770659745671e-05,1.0,0.5889581441879272,0.9348888993263245,1e-04
3.1031191610964015e-05,1.0,0.5888951420783997,0.9348888993263245,1e-04
2.9493457986973226e-05,1.0,0.5890324711799622,0.9348888993263245,1e-04
5.420793604571372e-05,1.0,0.5880268812179565,0.9346666932106018,1e-04
2.007172406592872e-05,1.0,0.5875624418258667,0.9346666932106018,1e-04
3.341111005283892e-05,1.0,0.5876445770263672,0.9346666932106018,1e-04
9.671448060544208e-05,1.0,0.5870272517204285,0.9346666932106018,1e-04
3.72364156646654e-05,1.0,0.5861427783966064,0.9346666932106018,1e-04
4.0281916881212965e-05,1.0,0.5866173505783081,0.9346666932106018,1e-04
3.469293733360246e-05,1.0,0.5873831510543823,0.9346666932106018,1e-04
4.661487400881015e-05,1.0,0.5882885456085205,0.9346666932106018,1e-04
2.2575230104848742e-05,1.0,0.5888484120368958,0.9344444274902344,1e-04
3.310850297566503e-05,1.0,0.5883206725120544,0.9344444274902344,1e-04
3.696357453009114e-05,1.0,0.5882038474082947,0.9344444274902344,1e-04
2.2742005967302248e-05,1.0,0.5884997248649597,0.9344444274902344,1e-04
5.698532550013624e-05,1.0,0.5882740616798401,0.9344444274902344,1e-04
3.6086621548747644e-05,1.0,0.5882651805877686,0.9344444274902344,1e-04
1.6144244000315666e-05,1.0,0.588036835193634,0.9344444274902344,1e-04
3.0886261811247095e-05,1.0,0.5886358022689819,0.9344444274902344,1e-04
3.482384272501804e-05,1.0,0.5891236066818237,0.9344444274902344,1e-04
2.5430710593354888e-05,1.0,0.5896105170249939,0.9346666932106018,1e-04
3.0683553632115945e-05,1.0,0.5900003910064697,0.9346666932106018,1e-04
2.6356265152571723e-05,1.0,0.5902047753334045,0.9346666932106018,1e-04
1.7230811863555573e-05,1.0,0.5907163619995117,0.9346666932106018,1e-04
5.462769331643358e-05,1.0,0.5909566283226013,0.9344444274902344,1e-04
1.6690642951289192e-05,1.0,0.590961754322052,0.9344444274902344,1e-04
6.312155164778233e-05,1.0,0.5907588601112366,0.9346666932106018,1e-04
4.5027794840279967e-05,1.0,0.5920366048812866,0.9348888993263245,1e-04
1.6465082808281295e-05,1.0,0.5924403667449951,0.9348888993263245,1e-04
3.0071849323576316e-05,1.0,0.5927655100822449,0.9348888993263245,1e-04
2.4232454961747862e-05,1.0,0.5931387543678284,0.9348888993263245,1e-04
2.9596403692266904e-05,1.0,0.5933444499969482,0.9346666932106018,1e-04
2.472972118994221e-05,1.0,0.5934498906135559,0.9346666932106018,1e-04
3.962069968110882e-05,1.0,0.5938752889633179,0.9348888993263245,1e-04
4.297852501622401e-05,1.0,0.5942644476890564,0.9348888993263245,1e-04
2.769627644738648e-05,1.0,0.5946146249771118,0.9348888993263245,1e-04
1.72282616404118e-05,1.0,0.5947660803794861,0.9348888993263245,1e-04
2.705873703234829e-05,1.0,0.5952180027961731,0.9351111054420471,1e-04
1.9249830074841157e-05,1.0,0.5954449772834778,0.9351111054420471,1e-04
1.323968535871245e-05,1.0,0.5956794619560242,0.9351111054420471,1e-04
2.213837069575675e-05,1.0,0.5958326458930969,0.9353333115577698,1e-04
2.642742583702784e-05,1.0,0.5957421064376831,0.9351111054420471,1e-04
1.8135107893613167e-05,1.0,0.5957086682319641,0.9351111054420471,1e-04
4.6130604459904134e-05,1.0,0.5959333181381226,0.9351111054420471,1e-04
3.413998274481855e-05,1.0,0.5957933664321899,0.9351111054420471,1e-04
2.0968001990695484e-05,1.0,0.5956618785858154,0.9351111054420471,1e-04
2.0413941456354223e-05,1.0,0.5955129265785217,0.9351111054420471,1e-04
2.9716986318817362e-05,1.0,0.5955172777175903,0.9348888993263245,1e-04
2.3192018488771282e-05,1.0,0.5956132411956787,0.9348888993263245,1e-04
1.8197080862591974e-05,1.0,0.5958951115608215,0.9348888993263245,1e-04
1.7144942830782384e-05,1.0,0.5960503220558167,0.9348888993263245,1e-04
3.499771628412418e-05,1.0,0.5962115526199341,0.9348888993263245,1e-04
2.967138061649166e-05,1.0,0.5958847403526306,0.9351111054420471,1e-04
2.5410867237951607e-05,1.0,0.5956934690475464,0.9351111054420471,1e-04
2.5917930543073453e-05,1.0,0.5961236953735352,0.9351111054420471,1e-04
1.8548704247223213e-05,1.0,0.5969408750534058,0.9351111054420471,1e-04
2.5323955924250185e-05,1.0,0.597497820854187,0.9351111054420471,1e-04
1.4247497347241733e-05,1.0,0.5978026390075684,0.9351111054420471,1e-04
2.7529884391697124e-05,1.0,0.5980296730995178,0.9351111054420471,1e-04
1.5694895409978926e-05,1.0,0.5979363322257996,0.9351111054420471,1e-04
3.184568049618974e-05,1.0,0.5974442958831787,0.9351111054420471,1e-04
1.3682557437277865e-05,1.0,0.5972105860710144,0.9351111054420471,1e-04
1.3298220437718555e-05,1.0,0.5972316265106201,0.9351111054420471,1e-04
6.832825602032244e-05,1.0,0.5974940657615662,0.9348888993263245,1e-04
3.256629497627728e-05,1.0,0.596727192401886,0.9348888993263245,1e-04
1.7395852410118096e-05,1.0,0.5966319441795349,0.9346666932106018,1e-04
3.687081334646791e-05,1.0,0.5974633097648621,0.9351111054420471,1e-04
1.3889057299820706e-05,1.0,0.5979778170585632,0.9351111054420471,1e-04
2.982202568091452e-05,1.0,0.5985410213470459,0.9351111054420471,1e-04
1.659418012422975e-05,1.0,0.5989733934402466,0.9351111054420471,1e-04
2.3466342099709436e-05,1.0,0.5993521809577942,0.9351111054420471,1e-04
6.278777436818928e-05,1.0,0.6002175807952881,0.9351111054420471,1e-04
1.4653679500042927e-05,1.0,0.6006232500076294,0.9353333115577698,1e-04
3.4484277421142906e-05,1.0,0.6006277203559875,0.9353333115577698,1e-04
2.639639023982454e-05,1.0,0.6005125045776367,0.9355555772781372,1e-04
2.9304183044587262e-05,1.0,0.6004481911659241,0.9355555772781372,1e-04
1.974628321477212e-05,1.0,0.6005167961120605,0.9355555772781372,1e-04
2.2763566448702477e-05,1.0,0.6008672714233398,0.9355555772781372,1e-04
2.670029971341137e-05,1.0,0.6010808944702148,0.9355555772781372,1e-04
2.1983774786349386e-05,1.0,0.6012549996376038,0.9355555772781372,1e-04
1.1963174983975478e-05,1.0,0.601366400718689,0.9355555772781372,1e-04
1.947639429999981e-05,1.0,0.6014918088912964,0.9355555772781372,1e-04
2.0447541828616522e-05,1.0,0.6016614437103271,0.9355555772781372,1e-04
2.048024362011347e-05,1.0,0.6022202372550964,0.9351111054420471,1e-04
2.736634633038193e-05,1.0,0.6025665402412415,0.9351111054420471,1e-04
1.7924779967870563e-05,1.0,0.6031014919281006,0.9351111054420471,1e-04
1.632749081181828e-05,1.0,0.6031879186630249,0.9351111054420471,1e-04
2.578111525508575e-05,1.0,0.6033570170402527,0.9351111054420471,1e-04
2.453536399116274e-05,1.0,0.6028873324394226,0.9353333115577698,1e-04
1.86735087481793e-05,1.0,0.6021690368652344,0.9355555772781372,1e-04
1.892951513582375e-05,1.0,0.6020851731300354,0.9355555772781372,1e-04
2.2762671505915932e-05,1.0,0.6023799180984497,0.9355555772781372,1e-04
2.461017902533058e-05,1.0,0.602476954460144,0.9355555772781372,1e-04
1.7949854736798443e-05,1.0,0.6027140021324158,0.9355555772781372,1e-04
1.7303789718425833e-05,1.0,0.6027442216873169,0.9355555772781372,1e-04
1.440847699996084e-05,1.0,0.6023934483528137,0.9355555772781372,1e-04
3.5654833482112736e-05,1.0,0.6026341915130615,0.9355555772781372,1e-04
2.5198729417752475e-05,1.0,0.6027064323425293,0.9355555772781372,1e-04
3.702375397551805e-05,1.0,0.6031284928321838,0.9353333115577698,1e-04
1.7789607227314264e-05,1.0,0.6031790375709534,0.9353333115577698,1e-04
2.3291577235795557e-05,1.0,0.6028529405593872,0.9351111054420471,1e-04
1.8309841834707186e-05,1.0,0.6029273867607117,0.9351111054420471,1e-04
1.9556993720470928e-05,1.0,0.6030566692352295,0.9351111054420471,1e-04
2.034315730270464e-05,1.0,0.6033155918121338,0.9351111054420471,1e-04
1.717214399832301e-05,1.0,0.6032875180244446,0.9351111054420471,1e-04
1.1784056368924212e-05,1.0,0.6034265756607056,0.9353333115577698,1e-04
1.4178081073623616e-05,1.0,0.603703498840332,0.9355555772781372,1e-04
2.3495145796914585e-05,1.0,0.604142963886261,0.9355555772781372,1e-04
1.3156209206499625e-05,1.0,0.6045142412185669,0.9355555772781372,1e-04
1.631381564948242e-05,1.0,0.6048509478569031,0.9355555772781372,1e-04
1.4933584679965861e-05,1.0,0.6046746373176575,0.9357777833938599,1e-04
1.7889953596750274e-05,1.0,0.604563295841217,0.9355555772781372,1e-04
1.2533573681139387e-05,1.0,0.6044856905937195,0.9355555772781372,1e-04
1.3833995581080671e-05,1.0,0.6048630475997925,0.9355555772781372,1e-04
3.730881508090533e-05,1.0,0.6058494448661804,0.9355555772781372,1e-04
2.077618773910217e-05,1.0,0.6063660383224487,0.9355555772781372,1e-04
9.958511327567976e-06,1.0,0.6065181493759155,0.9355555772781372,1e-04
2.2028270905138925e-05,1.0,0.6061065196990967,0.9355555772781372,1e-04
2.369709727645386e-05,1.0,0.604827880859375,0.9355555772781372,1e-04
1.732015334710013e-05,1.0,0.6038773059844971,0.9355555772781372,1e-04
2.083911203953903e-05,1.0,0.6039450168609619,0.9355555772781372,1e-04
2.427860272291582e-05,1.0,0.604388415813446,0.9357777833938599,1e-04
1.6813604815979488e-05,1.0,0.6046638488769531,0.9355555772781372,1e-04
1.476136276323814e-05,1.0,0.6050997376441956,0.9355555772781372,1e-04
1.5800664186826907e-05,1.0,0.6057023406028748,0.9357777833938599,1e-04
1.7356720491079614e-05,1.0,0.6059150099754333,0.9357777833938599,1e-04
1.2464944120438304e-05,1.0,0.6059539914131165,0.9357777833938599,1e-04
4.368478403193876e-05,1.0,0.6047366857528687,0.9353333115577698,1e-04
1.929654536070302e-05,1.0,0.6042808890342712,0.9348888993263245,1e-04
2.6246312700095586e-05,1.0,0.6048008799552917,0.9348888993263245,1e-04
1.6551743101445027e-05,1.0,0.60511314868927,0.9348888993263245,1e-04
2.38297761825379e-05,1.0,0.6055008769035339,0.9351111054420471,1e-04
2.3770953703206033e-05,1.0,0.6063252687454224,0.9351111054420471,1e-04
1.0720004866016097e-05,1.0,0.6069347858428955,0.9351111054420471,1e-04
1.2894980500277597e-05,1.0,0.6074662804603577,0.9353333115577698,1e-04
1.2374371181067545e-05,1.0,0.6079358458518982,0.9353333115577698,1e-04
1.2436185897968244e-05,1.0,0.6084190607070923,0.9355555772781372,1e-04
1.6946256437222473e-05,1.0,0.608867883682251,0.9355555772781372,1e-04
1.4759001714992337e-05,1.0,0.6091951727867126,0.9355555772781372,1e-04
2.1329551600501873e-05,1.0,0.6087772846221924,0.9353333115577698,1e-04
1.553520269226283e-05,1.0,0.6082965135574341,0.9351111054420471,1e-04
2.5001116227940656e-05,1.0,0.6083232164382935,0.9353333115577698,1e-04
1.5647690815967508e-05,1.0,0.6081310510635376,0.9353333115577698,1e-04
3.6489935155259445e-05,1.0,0.6079363822937012,0.9353333115577698,1e-04
1.0130905138794333e-05,1.0,0.6075243949890137,0.9353333115577698,1e-04
1.1406168596295174e-05,1.0,0.6076974868774414,0.9353333115577698,1e-04
1.1613902643148322e-05,1.0,0.6079164743423462,0.9353333115577698,1e-04
1.11455829028273e-05,1.0,0.6080625057220459,0.9353333115577698,1e-04
1.0488499356142711e-05,1.0,0.6083759665489197,0.9355555772781372,1e-04
1.6628207959001884e-05,1.0,0.608741819858551,0.9353333115577698,1e-04
2.180390220019035e-05,1.0,0.6083675026893616,0.9353333115577698,1e-04
1.2593290193763096e-05,1.0,0.6082035303115845,0.9353333115577698,1e-04
8.632503522676416e-06,1.0,0.6082316040992737,0.9351111054420471,1e-04
1.07359601315693e-05,1.0,0.6086030006408691,0.9351111054420471,1e-04
1.4507987543765921e-05,1.0,0.6086634397506714,0.9351111054420471,1e-04
2.3917875296319835e-05,1.0,0.6078132390975952,0.9351111054420471,1e-04
1.2179460100014694e-05,1.0,0.607099175453186,0.9348888993263245,1e-04
3.0652467103209347e-05,1.0,0.6052290201187134,0.9351111054420471,1e-04
1.030082694342127e-05,1.0,0.605056643486023,0.9351111054420471,1e-04
1.920668364618905e-05,1.0,0.6056675910949707,0.9353333115577698,1e-04
2.6676165362005122e-05,1.0,0.6069725751876831,0.9355555772781372,1e-04
1.1850251212308649e-05,1.0,0.6082117557525635,0.9355555772781372,1e-04
2.229371966677718e-05,1.0,0.6085352897644043,0.9355555772781372,1e-04
1.3102995580993593e-05,1.0,0.6083278059959412,0.9346666932106018,1e-04
1.5202592294372153e-05,1.0,0.6088115572929382,0.9346666932106018,1e-04
1.2891718142782338e-05,1.0,0.6093901991844177,0.9348888993263245,1e-04
1.9058104953728616e-05,1.0,0.6105934381484985,0.9348888993263245,1e-04
1.2643939044210128e-05,1.0,0.6112653613090515,0.9351111054420471,1e-04
1.0389330782345496e-05,1.0,0.6118223667144775,0.9355555772781372,1e-04
1.058655197994085e-05,1.0,0.6119094491004944,0.9355555772781372,1e-04
1.2873942978330888e-05,1.0,0.6119757890701294,0.9357777833938599,1e-04
1.4251267202780582e-05,1.0,0.6121289730072021,0.9357777833938599,1e-04
2.4225439119618386e-05,1.0,0.6104129552841187,0.9353333115577698,1e-04
1.021062234940473e-05,1.0,0.6089596152305603,0.9351111054420471,1e-04
9.287747161579318e-06,1.0,0.6090333461761475,0.9348888993263245,1e-04
1.0667196875147056e-05,1.0,0.6092273592948914,0.9351111054420471,1e-04
2.6495788915781304e-05,1.0,0.6100821495056152,0.9351111054420471,1e-04
2.083581784972921e-05,1.0,0.6112353801727295,0.9351111054420471,1e-04
1.6168753063539043e-05,1.0,0.6121518015861511,0.9355555772781372,1e-04
1.292243177886121e-05,1.0,0.6128405332565308,0.9355555772781372,1e-04
1.0947693226626143e-05,1.0,0.613405704498291,0.9357777833938599,1e-04
1.3068765838397667e-05,1.0,0.6139456629753113,0.9357777833938599,1e-04
8.506274753017351e-06,1.0,0.6140642762184143,0.9357777833938599,1e-04
8.830164006212726e-06,1.0,0.6140780448913574,0.9357777833938599,1e-04
8.873578735801857e-06,1.0,0.6140003800392151,0.9357777833938599,1e-04
1.03783031590865e-05,1.0,0.6140519976615906,0.9357777833938599,1e-04
9.340332326246426e-06,1.0,0.614126443862915,0.9357777833938599,1e-04
1.3968724488222506e-05,1.0,0.6139060258865356,0.9355555772781372,1e-04
2.789278187265154e-05,1.0,0.6130700707435608,0.9355555772781372,1e-04
1.2640703971555922e-05,1.0,0.6122552156448364,0.9355555772781372,1e-04
1.1028510016330983e-05,1.0,0.6123088002204895,0.9355555772781372,1e-04
8.593824531999417e-06,1.0,0.6125378608703613,0.9353333115577698,1e-04
8.892691766959615e-06,1.0,0.6128265857696533,0.9353333115577698,1e-04
1.1737726708815899e-05,1.0,0.6134102940559387,0.9353333115577698,1e-04
7.843011189834215e-06,1.0,0.613974928855896,0.9353333115577698,1e-04
1.1038375305361114e-05,1.0,0.6146631240844727,0.9353333115577698,1e-04
1.2965169844392221e-05,1.0,0.615088939666748,0.9357777833938599,1e-04
2.7369582312530838e-05,1.0,0.6142788529396057,0.9357777833938599,1e-04
1.3137830137566198e-05,1.0,0.6144387722015381,0.9359999895095825,1e-04
1.0776492672448512e-05,1.0,0.6144217252731323,0.9359999895095825,1e-04
1.4248551451601088e-05,1.0,0.614324688911438,0.9359999895095825,1e-04
1.2252758097019978e-05,1.0,0.6140366196632385,0.9353333115577698,1e-04
1.2462186532502528e-05,1.0,0.6142898201942444,0.9353333115577698,1e-04
1.0401394320069812e-05,1.0,0.6144464015960693,0.9351111054420471,1e-04
1.156200232799165e-05,1.0,0.6151164770126343,0.9351111054420471,1e-04
7.214108791231411e-06,1.0,0.6156070828437805,0.9351111054420471,1e-04
2.179553484893404e-05,1.0,0.6159414649009705,0.9351111054420471,1e-04
9.92900640994776e-06,1.0,0.6158989667892456,0.9351111054420471,1e-04
8.003596121852752e-06,1.0,0.6159153580665588,0.9351111054420471,1e-04
1.3508342817658558e-05,1.0,0.6163821816444397,0.9351111054420471,1e-04
1.6596737623331137e-05,1.0,0.6163625121116638,0.9353333115577698,1e-04
1.8344795535085723e-05,1.0,0.6164114475250244,0.9351111054420471,1e-04
7.763355824863538e-06,1.0,0.6167294979095459,0.9353333115577698,1e-04
1.2413004697009455e-05,1.0,0.6173719763755798,0.9353333115577698,1e-04
2.336201214347966e-05,1.0,0.6173430681228638,0.9355555772781372,1e-04
9.962544027075637e-06,1.0,0.617573618888855,0.9353333115577698,1e-04
1.4646213458036073e-05,1.0,0.6177189946174622,0.9351111054420471,1e-04
5.6029380175459664e-06,1.0,0.6178871393203735,0.9353333115577698,1e-04
9.835672244662419e-06,1.0,0.6179599761962891,0.9353333115577698,1e-04
1.7354739611619152e-05,1.0,0.6180471777915955,0.9353333115577698,1e-04
1.5414503650390543e-05,1.0,0.6182791590690613,0.9355555772781372,1e-04
8.607759809819981e-06,1.0,0.6183406114578247,0.9357777833938599,1e-04
1.0548051250225399e-05,1.0,0.6182408332824707,0.9357777833938599,1e-04
7.506751444452675e-06,1.0,0.6180380582809448,0.9357777833938599,1e-04
7.850383553886786e-06,1.0,0.6182264089584351,0.9357777833938599,1e-04
7.341950094996719e-06,1.0,0.6184726357460022,0.9357777833938599,1e-04
1.1780635759350844e-05,1.0,0.6185914278030396,0.9355555772781372,1e-04
7.8301272878889e-06,1.0,0.6186892986297607,0.9353333115577698,1e-04
7.311059562198352e-06,1.0,0.6188859939575195,0.9353333115577698,1e-04
1.3078958545520436e-05,1.0,0.6189905405044556,0.9355555772781372,1e-04
8.886795512808021e-06,1.0,0.6191337704658508,0.9357777833938599,1e-04
1.0756371011666488e-05,1.0,0.6190512180328369,0.9355555772781372,1e-04
7.002340680628549e-06,1.0,0.619046151638031,0.9355555772781372,1e-04
5.886407507205149e-06,1.0,0.6192206144332886,0.9355555772781372,1e-04
5.672308816428995e-06,1.0,0.6193323135375977,0.9355555772781372,1e-04
8.655705642013345e-06,1.0,0.6196494698524475,0.9355555772781372,1e-04
6.386692803062033e-06,1.0,0.6196616291999817,0.9355555772781372,1e-04
7.921263204480056e-06,1.0,0.6197530031204224,0.9355555772781372,1e-04
1.2160287042206619e-05,1.0,0.6202660202980042,0.9355555772781372,1e-04
1.0396426660008729e-05,1.0,0.6211186051368713,0.9355555772781372,1e-04
9.69637585512828e-06,1.0,0.6212763786315918,0.9355555772781372,1e-04
7.406065833492903e-06,1.0,0.6213396787643433,0.9357777833938599,1e-04
8.992775292426813e-06,1.0,0.6214569211006165,0.9357777833938599,1e-04
2.0832649170188233e-05,1.0,0.6217316389083862,0.9355555772781372,1e-04
5.802966370538343e-06,1.0,0.6218358874320984,0.9357777833938599,1e-04
9.184840564557817e-06,1.0,0.6211662292480469,0.9357777833938599,1e-04
1.0335034858144354e-05,1.0,0.6210525035858154,0.9357777833938599,1e-04
5.336666617949959e-06,1.0,0.6209335923194885,0.9355555772781372,1e-04
7.208871465991251e-06,1.0,0.6210228204727173,0.9357777833938599,1e-04
9.550097274768632e-06,1.0,0.6214208006858826,0.9359999895095825,1e-04
2.6030942535726354e-05,1.0,0.6186099052429199,0.9348888993263245,1e-04
4.383389023132622e-05,1.0,0.6178762912750244,0.9346666932106018,1e-04
1.1555937817320228e-05,1.0,0.6182492971420288,0.9348888993263245,1e-04
6.9736820478283335e-06,1.0,0.6188534498214722,0.9348888993263245,1e-04
4.911298674414866e-06,1.0,0.6195368766784668,0.9348888993263245,1e-04
9.97169718175428e-06,1.0,0.6201251149177551,0.9353333115577698,1e-04
1.0124880645889789e-05,1.0,0.6207948923110962,0.9355555772781372,1e-04
7.224459295684937e-06,1.0,0.620995819568634,0.9355555772781372,1e-04
1.5085968698258512e-05,1.0,0.6212610602378845,0.9357777833938599,1e-04
5.573985617957078e-06,1.0,0.6220003962516785,0.9357777833938599,1e-04
5.379019057727419e-06,1.0,0.6223700046539307,0.9357777833938599,1e-04
9.983809832192492e-06,1.0,0.6222913265228271,0.9355555772781372,1e-04
9.405091077496763e-06,1.0,0.6227521896362305,0.9353333115577698,1e-04
5.475858415593393e-06,1.0,0.6234611868858337,0.9355555772781372,1e-04
6.875967756059254e-06,1.0,0.6237888932228088,0.9355555772781372,1e-04
7.731558980594855e-06,1.0,0.6240228414535522,0.9353333115577698,1e-04
6.111650691309478e-06,1.0,0.6243852972984314,0.9353333115577698,1e-04
1.6583333490416408e-05,1.0,0.6247782707214355,0.9353333115577698,1e-04
1.7944834326044656e-05,1.0,0.6246065497398376,0.9353333115577698,1e-04
1.6959682398010045e-05,1.0,0.6237125396728516,0.9355555772781372,1e-04
8.130183232424315e-06,1.0,0.6236703991889954,0.9355555772781372,1e-04
7.765328518871684e-06,1.0,0.6239839792251587,0.9353333115577698,1e-04
6.108970865170704e-06,1.0,0.6237287521362305,0.9353333115577698,1e-04
1.0779762305901386e-05,1.0,0.6237202882766724,0.9353333115577698,1e-04
1.0952076991088688e-05,1.0,0.6237835884094238,0.9353333115577698,1e-04
9.811905329115689e-06,1.0,0.623801052570343,0.9353333115577698,1e-04
8.366583642782643e-06,1.0,0.6234980821609497,0.9355555772781372,1e-04
4.353425993031124e-06,1.0,0.6235514283180237,0.9357777833938599,1e-04
9.417174624104518e-06,1.0,0.6237971186637878,0.9357777833938599,1e-04
1.3359303011384327e-05,1.0,0.625266969203949,0.9357777833938599,1e-04
9.753578524396289e-06,1.0,0.6258026957511902,0.9355555772781372,1e-04
5.08650236952235e-06,1.0,0.6260282397270203,0.9357777833938599,1e-04
9.170758858090267e-06,1.0,0.6264786124229431,0.9357777833938599,1e-04
9.421713002666365e-06,1.0,0.6266927123069763,0.9357777833938599,1e-04
5.922287982684793e-06,1.0,0.6266919374465942,0.9357777833938599,1e-04
4.260187324689468e-06,1.0,0.6263709664344788,0.9355555772781372,1e-04
6.6999100454268046e-06,1.0,0.626447856426239,0.9355555772781372,1e-04
1.0535449291637633e-05,1.0,0.6263712048530579,0.9355555772781372,1e-04
1.2926955605507828e-05,1.0,0.6258420944213867,0.9357777833938599,1e-04
7.249862846947508e-06,1.0,0.6258630156517029,0.9357777833938599,1e-04
1.438447907275986e-05,1.0,0.6261372566223145,0.9357777833938599,1e-04
4.851420271734241e-06,1.0,0.6268525719642639,0.9357777833938599,1e-04
6.187636699905852e-06,1.0,0.6273149251937866,0.9357777833938599,1e-04
4.93437528348295e-06,1.0,0.627621054649353,0.9357777833938599,1e-04
7.885820195951965e-06,1.0,0.6276899576187134,0.9359999895095825,1e-04
6.954947821213864e-06,1.0,0.6280050873756409,0.9359999895095825,1e-04
4.6481140998366755e-06,1.0,0.6275885701179504,0.9359999895095825,1e-04
9.499643056187779e-06,1.0,0.6270092725753784,0.9357777833938599,1e-04
6.954963282623794e-06,1.0,0.6265009641647339,0.9357777833938599,1e-04
9.76703995547723e-06,1.0,0.6259792447090149,0.9357777833938599,1e-04
5.674415660905652e-06,1.0,0.6258771419525146,0.9357777833938599,1e-04
7.768303476041183e-06,1.0,0.6258419156074524,0.9359999895095825,1e-04
3.899510829796782e-06,1.0,0.6258073449134827,0.9359999895095825,1e-04
4.973293016519165e-06,1.0,0.626139223575592,0.9359999895095825,1e-04
1.0922287401626818e-05,1.0,0.6265466213226318,0.9359999895095825,1e-04
5.36062361788936e-06,1.0,0.6261661052703857,0.9359999895095825,1e-04
5.403565864980919e-06,1.0,0.6260812878608704,0.9359999895095825,1e-04
5.446927843877347e-06,1.0,0.6260055899620056,0.9359999895095825,1e-04
1.1832979907921981e-05,1.0,0.625909686088562,0.9357777833938599,1e-04
6.1027571973681916e-06,1.0,0.6247767210006714,0.9357777833938599,1e-04
