loss,accuracy,val_loss,val_accuracy,lr
0.5215084552764893,0.8700000047683716,1.257840633392334,0.902222216129303,0.001
0.23716334998607635,0.9319999814033508,0.7741607427597046,0.910444438457489,0.001
0.18473835289478302,0.9399999976158142,0.4912504255771637,0.9271110892295837,0.001
0.15876144170761108,0.9459999799728394,0.3929206132888794,0.9286666512489319,0.001
0.1328849494457245,0.9559999704360962,0.5339691638946533,0.9348888993263245,0.001
0.14054420590400696,0.9599999785423279,0.4511793851852417,0.9088888764381409,0.001
0.10930527001619339,0.9660000205039978,0.9085593223571777,0.753777801990509,0.001
0.1073325052857399,0.9760000109672546,1.2847367525100708,0.2477777749300003,0.001
0.09051002562046051,0.9700000286102295,1.4875690937042236,0.11711110919713974,0.001
0.08589450269937515,0.9739999771118164,2.9072296619415283,0.0273333340883255,0.001
0.0910634696483612,0.9700000286102295,2.2536966800689697,0.09044444561004639,0.001
0.07678689062595367,0.9800000190734863,1.066948652267456,0.4682222306728363,0.001
0.0746101588010788,0.9800000190734863,1.9859017133712769,0.21177777647972107,0.001
0.09105052798986435,0.9739999771118164,2.985426664352417,0.1733333319425583,0.001
0.06414623558521271,0.984000027179718,2.9243600368499756,0.07888888567686081,0.001
0.05969027057290077,0.9860000014305115,1.4453967809677124,0.3637777864933014,0.001
0.05867529287934303,0.984000027179718,1.5983874797821045,0.3642222285270691,0.001
0.0587790384888649,0.9800000190734863,0.6872652173042297,0.7906666398048401,0.001
0.06980716437101364,0.9800000190734863,1.2509056329727173,0.43622222542762756,0.001
0.06353063881397247,0.984000027179718,0.6716311573982239,0.753777801990509,0.001
0.058088671416044235,0.9860000014305115,0.6132516860961914,0.863111138343811,0.001
0.05312776938080788,0.9819999933242798,0.46677103638648987,0.8964444398880005,0.001
0.04711920768022537,0.9860000014305115,0.4194495975971222,0.9255555272102356,0.001
0.0497291125357151,0.9860000014305115,0.4427117109298706,0.9064444303512573,0.001
0.09072437137365341,0.9779999852180481,1.5788030624389648,0.2588889002799988,0.001
0.07043378055095673,0.9800000190734863,0.7361664772033691,0.7482222318649292,0.001
0.05875549837946892,0.9860000014305115,0.7253139615058899,0.7528889179229736,0.001
0.05361132696270943,0.9800000190734863,0.44423696398735046,0.882888913154602,0.001
0.045926280319690704,0.9860000014305115,0.2838994860649109,0.9328888654708862,0.001
0.03495854511857033,0.9919999837875366,0.2611241936683655,0.9346666932106018,0.001
0.04537937045097351,0.9900000095367432,0.26504072546958923,0.9351111054420471,0.001
0.04787731543183327,0.9879999756813049,0.24791571497917175,0.9375555515289307,0.001
0.06402496248483658,0.9760000109672546,0.24107488989830017,0.9380000233650208,0.001
0.07914477586746216,0.9739999771118164,0.28289172053337097,0.903333306312561,0.001
0.07566170394420624,0.9739999771118164,0.3492266833782196,0.8848888874053955,0.001
0.07817722856998444,0.972000002861023,0.4063507616519928,0.8666666746139526,0.001
0.06832773238420486,0.9800000190734863,0.36520737409591675,0.8648889064788818,0.001
0.03892255201935768,0.9860000014305115,0.46432048082351685,0.801111102104187,0.001
0.041898686438798904,0.9879999756813049,0.36638009548187256,0.8702222108840942,0.001
0.03917240351438522,0.9860000014305115,0.33535051345825195,0.886888861656189,0.001
0.028724463656544685,0.9879999756813049,0.3350117802619934,0.8840000033378601,0.001
0.03442325443029404,0.984000027179718,0.2950298488140106,0.8962222337722778,0.001
0.05814439430832863,0.984000027179718,0.35187017917633057,0.8842222094535828,0.001
0.04932180792093277,0.984000027179718,0.6189578771591187,0.7886666655540466,0.001
0.03785577416419983,0.9919999837875366,0.8580626845359802,0.741777777671814,0.001
0.05381857976317406,0.9860000014305115,0.4235813617706299,0.8422222137451172,0.001
0.02454523742198944,0.9919999837875366,0.3792226016521454,0.8826666474342346,0.001
0.032297283411026,0.9919999837875366,0.31207531690597534,0.9108889102935791,0.001
0.022706111893057823,0.9919999837875366,0.3211994171142578,0.9177777767181396,0.001
0.01566210202872753,0.9980000257492065,0.32757532596588135,0.9077777862548828,0.001
0.014243890531361103,0.9940000176429749,0.32167848944664,0.8957777619361877,0.001
0.021572167053818703,0.9919999837875366,0.30718889832496643,0.9351111054420471,0.001
0.019249841570854187,0.9919999837875366,0.33433640003204346,0.903333306312561,0.001
0.027039222419261932,0.9900000095367432,0.2772250771522522,0.9304444193840027,0.001
0.014927033334970474,0.9959999918937683,0.2988894283771515,0.9179999828338623,0.001
0.012711397372186184,0.9940000176429749,0.31668588519096375,0.9155555367469788,0.001
0.006867516320198774,1.0,0.35160258412361145,0.9153333306312561,0.001
0.005382975097745657,1.0,0.4116950035095215,0.8888888955116272,0.001
0.006981683429330587,0.9980000257492065,0.4378347098827362,0.8733333349227905,0.001
0.004103873856365681,1.0,0.6023569703102112,0.8215555548667908,0.001
0.007528988178819418,0.9980000257492065,0.49189522862434387,0.8471111059188843,0.001
0.0067223720252513885,1.0,0.33685946464538574,0.9262222051620483,0.001
0.010588805191218853,0.9980000257492065,0.5277382731437683,0.8397777676582336,0.001
0.0119320685043931,0.9959999918937683,0.3253994286060333,0.921999990940094,0.001
0.008574411273002625,0.9980000257492065,0.33478206396102905,0.9293333292007446,0.001
0.010509343817830086,0.9959999918937683,0.39444395899772644,0.8982222080230713,0.001
0.0056138173677027225,1.0,0.4065813720226288,0.8924444317817688,0.001
0.015379110351204872,0.9919999837875366,0.3981885612010956,0.9282222390174866,0.001
0.031697168946266174,0.9900000095367432,0.4504121243953705,0.9413333535194397,0.001
0.026171280071139336,0.9919999837875366,0.39029866456985474,0.940666675567627,0.001
0.008824414573609829,0.9980000257492065,0.43520307540893555,0.9275555610656738,0.001
0.008460504934191704,1.0,0.4396819472312927,0.9251111149787903,0.001
0.0056317029520869255,0.9980000257492065,0.38884204626083374,0.9273333549499512,0.001
0.002218598732724786,1.0,0.3617253005504608,0.9348888993263245,0.001
0.002358428668230772,1.0,0.3337950110435486,0.9388889074325562,0.001
0.00300808297470212,0.9980000257492065,0.4304448366165161,0.8775555491447449,0.001
0.0026849349960684776,1.0,0.39762619137763977,0.8953333497047424,0.001
0.0011402057716622949,1.0,0.3482355773448944,0.925777792930603,0.001
0.0009591795387677848,1.0,0.34694576263427734,0.9295555353164673,0.001
0.0006137012387625873,1.0,0.35141077637672424,0.9262222051620483,0.001
0.0012667800765484571,1.0,0.3487504720687866,0.9288889169692993,0.001
0.0005422497051768005,1.0,0.34758996963500977,0.9300000071525574,0.001
0.0005157802952453494,1.0,0.34489041566848755,0.9342222213745117,0.001
0.0003834079543594271,1.0,0.346692830324173,0.9371111392974854,0.001
0.0004338002181611955,1.0,0.348757266998291,0.9368888735771179,0.001
0.0002932028437498957,1.0,0.3512556850910187,0.9364444613456726,0.001
0.0003641745715867728,1.0,0.3522823452949524,0.9351111054420471,0.001
0.0003569687542039901,1.0,0.3517962694168091,0.9353333115577698,0.001
0.0012307281140238047,1.0,0.34481462836265564,0.9322222471237183,0.001
0.0006527272635139525,1.0,0.33855876326560974,0.9368888735771179,0.001
0.00042183022014796734,1.0,0.3427797257900238,0.9399999976158142,0.001
0.00029950906173326075,1.0,0.34880542755126953,0.9428889155387878,0.001
0.0005050828331150115,1.0,0.3497912287712097,0.9397777915000916,0.001
0.00032004923559725285,1.0,0.3548271059989929,0.9342222213745117,0.001
0.0005962288705632091,1.0,0.3579261600971222,0.9355555772781372,0.001
0.00023230946680996567,1.0,0.362653523683548,0.9382222294807434,0.001
0.0005676224827766418,1.0,0.3644528090953827,0.9382222294807434,0.001
0.0002096877433359623,1.0,0.3648967742919922,0.9337777495384216,0.001
0.00039908685721457005,1.0,0.36435964703559875,0.9342222213745117,0.001
0.00020717921142932028,1.0,0.3645038306713104,0.9375555515289307,0.001
0.00029574832296930254,1.0,0.3681345283985138,0.9393333196640015,0.001
0.0001888135157059878,1.0,0.3728097081184387,0.9393333196640015,0.001
0.0002672788396012038,1.0,0.37702128291130066,0.9404444694519043,0.001
0.0002013521152548492,1.0,0.379586786031723,0.9393333196640015,0.001
0.00016322234296239913,1.0,0.3825802206993103,0.9393333196640015,0.001
0.0001409686665283516,1.0,0.38406887650489807,0.9395555257797241,0.001
0.0001809673267416656,1.0,0.3856179118156433,0.9404444694519043,0.001
0.00022540328791365027,1.0,0.38608109951019287,0.940666675567627,0.001
0.00023216937552206218,1.0,0.3855229616165161,0.9399999976158142,0.001
0.00013385835336521268,1.0,0.38725507259368896,0.9404444694519043,0.001
0.0001717916311463341,1.0,0.3879390060901642,0.9413333535194397,0.001
0.00011202043970115483,1.0,0.38889622688293457,0.941777765750885,0.001
0.0001157149308710359,1.0,0.3904492259025574,0.941777765750885,0.001
0.0002551476063672453,1.0,0.39213210344314575,0.9419999718666077,0.001
0.0001379082095809281,1.0,0.3934011459350586,0.941777765750885,0.001
0.00015613620053045452,1.0,0.39370983839035034,0.9419999718666077,0.001
0.00013430345279630274,1.0,0.3943980932235718,0.9419999718666077,0.001
0.0001254858070751652,1.0,0.3944441080093384,0.941777765750885,0.001
0.0001568664301885292,1.0,0.3944118916988373,0.9415555596351624,0.001
0.00011270063987467438,1.0,0.3944452106952667,0.9415555596351624,0.001
0.0001344226038781926,1.0,0.3950076997280121,0.941777765750885,0.001
0.00013884449435863644,1.0,0.3936491012573242,0.9419999718666077,0.001
0.0001309425861109048,1.0,0.3926011919975281,0.9399999976158142,0.001
9.768705058377236e-05,1.0,0.3934149444103241,0.9399999976158142,0.001
0.00012613434228114784,1.0,0.3933791518211365,0.9408888816833496,0.001
0.00015952525427564979,1.0,0.3940514028072357,0.9404444694519043,0.001
0.0001185041619464755,1.0,0.39512819051742554,0.941777765750885,0.001
0.00012394275108817965,1.0,0.3943256735801697,0.940666675567627,0.001
0.00016763874737080187,1.0,0.394880086183548,0.9402222037315369,0.001
0.00016033179417718202,1.0,0.3940795958042145,0.9397777915000916,0.001
0.00021079335419926792,1.0,0.3942045569419861,0.9395555257797241,0.001
9.895820403471589e-05,1.0,0.3949770927429199,0.9404444694519043,0.001
0.00012013307423330843,1.0,0.39677169919013977,0.940666675567627,0.001
8.74192628543824e-05,1.0,0.39803561568260193,0.9399999976158142,0.001
0.00012440061254892498,1.0,0.3989321291446686,0.9397777915000916,0.001
8.8221684563905e-05,1.0,0.39925163984298706,0.9402222037315369,0.001
8.551941573387012e-05,1.0,0.3998316824436188,0.9402222037315369,0.001
0.00012615298328455538,1.0,0.40078747272491455,0.9402222037315369,0.001
9.681491064839065e-05,1.0,0.4011959433555603,0.9402222037315369,0.001
0.00016744302411098033,1.0,0.3985099792480469,0.9397777915000916,0.001
0.0001543442631373182,1.0,0.39689216017723083,0.9397777915000916,0.001
7.888217078289017e-05,1.0,0.3967955410480499,0.9402222037315369,0.001
8.001433161552995e-05,1.0,0.3978514075279236,0.9404444694519043,0.001
0.00011994790838798508,1.0,0.39922937750816345,0.9404444694519043,0.001
0.00016992785094771534,1.0,0.4006252884864807,0.9402222037315369,0.001
0.00010521586227696389,1.0,0.40076446533203125,0.940666675567627,0.001
8.570944919483736e-05,1.0,0.4018160402774811,0.9408888816833496,0.001
0.00015753037587273866,1.0,0.40416160225868225,0.9408888816833496,0.001
9.481156303081661e-05,1.0,0.4056636691093445,0.9413333535194397,0.001
9.443894668947905e-05,1.0,0.4056951701641083,0.9408888816833496,0.001
5.615954796667211e-05,1.0,0.40584462881088257,0.940666675567627,0.001
6.366287561831996e-05,1.0,0.4061136245727539,0.9408888816833496,0.001
7.13054250809364e-05,1.0,0.4063229560852051,0.9402222037315369,0.001
8.392654126510024e-05,1.0,0.4070935845375061,0.9402222037315369,0.001
0.0001968315482372418,1.0,0.4090922474861145,0.9402222037315369,0.001
9.635802416596562e-05,1.0,0.4117637872695923,0.9397777915000916,0.001
0.00013649594620801508,1.0,0.4115665853023529,0.9391111135482788,0.001
0.00010861911141546443,1.0,0.40894991159439087,0.9368888735771179,0.001
7.39744064048864e-05,1.0,0.4081830084323883,0.9366666674613953,0.001
7.982216629898176e-05,1.0,0.4085167348384857,0.9371111392974854,0.001
5.780981882708147e-05,1.0,0.4088112413883209,0.937333345413208,0.001
6.370638584485278e-05,1.0,0.40946900844573975,0.9380000233650208,0.001
5.391869126469828e-05,1.0,0.40982118248939514,0.9386666417121887,0.0005
6.557554297614843e-05,1.0,0.41051575541496277,0.9395555257797241,0.0005
0.00011284576612524688,1.0,0.4109610319137573,0.9395555257797241,0.0005
6.775814108550549e-05,1.0,0.4111934304237366,0.9399999976158142,0.0005
8.7625281594228e-05,1.0,0.4116029441356659,0.9399999976158142,0.0005
8.627305214758962e-05,1.0,0.4120106101036072,0.9399999976158142,0.0005
7.987183198565617e-05,1.0,0.41211414337158203,0.9399999976158142,0.0005
0.00013664898870047182,1.0,0.41404131054878235,0.9402222037315369,0.0005
0.00010517767805140465,1.0,0.41484466195106506,0.9397777915000916,0.0005
8.259781316155568e-05,1.0,0.4155295491218567,0.9399999976158142,0.0005
0.00010877412569243461,1.0,0.41552385687828064,0.9399999976158142,0.0005
4.831470505450852e-05,1.0,0.4153136909008026,0.9399999976158142,0.0005
7.506849215133116e-05,1.0,0.41582179069519043,0.9395555257797241,0.0005
0.00020100429537706077,1.0,0.41611427068710327,0.9397777915000916,0.0005
4.7909721615724266e-05,1.0,0.4165734350681305,0.9402222037315369,0.0005
7.611867476953194e-05,1.0,0.416782945394516,0.9402222037315369,0.0005
0.00012667746341321617,1.0,0.41539400815963745,0.9399999976158142,0.0005
6.613019650103524e-05,1.0,0.41512754559516907,0.9402222037315369,0.0005
0.00011449142039055005,1.0,0.4157516062259674,0.9402222037315369,0.0005
4.983124017599039e-05,1.0,0.41590651869773865,0.9404444694519043,0.0005
6.717289215885103e-05,1.0,0.41612690687179565,0.940666675567627,0.0005
0.00012800240074284375,1.0,0.4160612225532532,0.9404444694519043,0.0005
9.033089008880779e-05,1.0,0.41578513383865356,0.9408888816833496,0.0005
5.5426509788958356e-05,1.0,0.4156070053577423,0.9411110877990723,0.0005
8.182963938452303e-05,1.0,0.4165073037147522,0.9413333535194397,0.0005
6.358653627103195e-05,1.0,0.4171121418476105,0.9413333535194397,0.0005
4.229046680848114e-05,1.0,0.41734716296195984,0.9411110877990723,0.0005
9.459399007027969e-05,1.0,0.41745495796203613,0.9408888816833496,0.0005
5.5927510402398184e-05,1.0,0.4171159565448761,0.9402222037315369,0.0005
6.422615115297958e-05,1.0,0.41697198152542114,0.9399999976158142,0.0005
4.6929217205615714e-05,1.0,0.41731956601142883,0.9404444694519043,0.0005
0.00011182016169186682,1.0,0.4171576201915741,0.9399999976158142,0.0005
5.682417759089731e-05,1.0,0.41686972975730896,0.9395555257797241,0.0005
5.705930743715726e-05,1.0,0.41713690757751465,0.9386666417121887,0.0005
6.187427061377093e-05,1.0,0.41749247908592224,0.9388889074325562,0.0005
6.571474659722298e-05,1.0,0.41751763224601746,0.9388889074325562,0.0005
4.70531995233614e-05,1.0,0.41797301173210144,0.9393333196640015,0.0005
4.676601383835077e-05,1.0,0.41845959424972534,0.9395555257797241,0.0005
4.986658677808009e-05,1.0,0.4184647500514984,0.9395555257797241,0.0005
4.426321174832992e-05,1.0,0.41900569200515747,0.9395555257797241,0.0005
0.00014436370111070573,1.0,0.4155128598213196,0.9388889074325562,0.0005
7.31792752048932e-05,1.0,0.41415414214134216,0.9382222294807434,0.0005
8.545677701476961e-05,1.0,0.41459545493125916,0.9386666417121887,0.0005
0.00010573863255558535,1.0,0.4155435264110565,0.9393333196640015,0.0005
5.5851003708085045e-05,1.0,0.41665753722190857,0.9397777915000916,0.0005
8.89377697603777e-05,1.0,0.4175654947757721,0.9397777915000916,0.0005
6.404963642125949e-05,1.0,0.4199518859386444,0.9399999976158142,0.0005
7.740247383480892e-05,1.0,0.4206695258617401,0.9402222037315369,0.0005
6.390520138666034e-05,1.0,0.4210992753505707,0.9399999976158142,0.0005
7.330138032557443e-05,1.0,0.42098569869995117,0.9399999976158142,0.0005
8.590480138082057e-05,1.0,0.42116084694862366,0.9397777915000916,0.00025
5.043053533881903e-05,1.0,0.4213487505912781,0.9395555257797241,0.00025
5.3482359362533316e-05,1.0,0.42180487513542175,0.9393333196640015,0.00025
9.417830733582377e-05,1.0,0.4219588339328766,0.9391111135482788,0.00025
6.11716095590964e-05,1.0,0.42202645540237427,0.9391111135482788,0.00025
6.721518002450466e-05,1.0,0.4218621551990509,0.9391111135482788,0.00025
5.579803109867498e-05,1.0,0.42191383242607117,0.9391111135482788,0.00025
3.669116267701611e-05,1.0,0.4221774935722351,0.9391111135482788,0.00025
3.7376863474491984e-05,1.0,0.4224018156528473,0.9393333196640015,0.00025
9.205525566358119e-05,1.0,0.4220309257507324,0.9393333196640015,0.00025
3.490398376015946e-05,1.0,0.4218871295452118,0.9393333196640015,0.00025
5.0260201533092186e-05,1.0,0.4222133457660675,0.9391111135482788,0.00025
6.805703742429614e-05,1.0,0.422523558139801,0.9391111135482788,0.00025
6.162803038023412e-05,1.0,0.4226226806640625,0.9391111135482788,0.00025
4.203833668725565e-05,1.0,0.422907292842865,0.9395555257797241,0.00025
3.527758963173255e-05,1.0,0.4231646955013275,0.9393333196640015,0.00025
0.00012263616372365505,1.0,0.42349302768707275,0.9393333196640015,0.00025
6.90477027092129e-05,1.0,0.4237897992134094,0.9397777915000916,0.00025
4.344125045463443e-05,1.0,0.4240209758281708,0.9397777915000916,0.00025
6.51341542834416e-05,1.0,0.4240676164627075,0.9397777915000916,0.00025
5.444595808512531e-05,1.0,0.4243687093257904,0.9397777915000916,0.00025
3.3093951060436666e-05,1.0,0.42471572756767273,0.9397777915000916,0.00025
4.7053166781552136e-05,1.0,0.42485135793685913,0.9397777915000916,0.00025
5.4920434195082635e-05,1.0,0.4248439371585846,0.9395555257797241,0.00025
4.776571222464554e-05,1.0,0.42490294575691223,0.9395555257797241,0.00025
4.0870963857742026e-05,1.0,0.425234854221344,0.9395555257797241,0.00025
8.168703061528504e-05,1.0,0.4245052635669708,0.9397777915000916,0.00025
5.657353176502511e-05,1.0,0.4243561029434204,0.9397777915000916,0.00025
5.5641779908910394e-05,1.0,0.4243679940700531,0.9397777915000916,0.00025
4.019184416392818e-05,1.0,0.4243651032447815,0.9395555257797241,0.00025
2.8663722332566977e-05,1.0,0.4244939386844635,0.9395555257797241,0.00025
5.3268075134838e-05,1.0,0.4245985150337219,0.9397777915000916,0.00025
8.62055821926333e-05,1.0,0.42324119806289673,0.9386666417121887,0.00025
5.7051220210269094e-05,1.0,0.42297500371932983,0.9382222294807434,0.00025
9.34946074266918e-05,1.0,0.4231019914150238,0.9377777576446533,0.00025
5.803589374409057e-05,1.0,0.4228200316429138,0.9388889074325562,0.00025
4.965099287801422e-05,1.0,0.4227098822593689,0.9391111135482788,0.00025
3.7806232285220176e-05,1.0,0.4228099286556244,0.9397777915000916,0.00025
4.574333433993161e-05,1.0,0.42303088307380676,0.9397777915000916,0.00025
5.041342228651047e-05,1.0,0.42351558804512024,0.9395555257797241,0.00025
7.579015800729394e-05,1.0,0.42380785942077637,0.9395555257797241,0.00025
4.2056264646817e-05,1.0,0.4239549934864044,0.9395555257797241,0.00025
3.37364872393664e-05,1.0,0.4241306781768799,0.9395555257797241,0.00025
4.291941877454519e-05,1.0,0.42431044578552246,0.9395555257797241,0.00025
9.066363418241963e-05,1.0,0.4250093698501587,0.9397777915000916,0.00025
4.7441946662729606e-05,1.0,0.42536139488220215,0.9397777915000916,0.00025
0.00013964435493107885,1.0,0.42471665143966675,0.9402222037315369,0.00025
4.178769449936226e-05,1.0,0.42466065287590027,0.9404444694519043,0.00025
5.129881537868641e-05,1.0,0.4246869683265686,0.9404444694519043,0.00025
6.86446437612176e-05,1.0,0.42499086260795593,0.9402222037315369,0.00025
4.885067755822092e-05,1.0,0.4251961410045624,0.9402222037315369,0.000125
5.208226139075123e-05,1.0,0.4253343641757965,0.9399999976158142,0.000125
4.8623413022141904e-05,1.0,0.42546841502189636,0.9397777915000916,0.000125
4.226421151543036e-05,1.0,0.4255790710449219,0.9397777915000916,0.000125
5.422528556664474e-05,1.0,0.42561039328575134,0.9397777915000916,0.000125
3.40685473929625e-05,1.0,0.425751656293869,0.9397777915000916,0.000125
3.656045737443492e-05,1.0,0.42593276500701904,0.9397777915000916,0.000125
5.354795575840399e-05,1.0,0.42605748772621155,0.9397777915000916,0.000125
5.1825569244101644e-05,1.0,0.4259839951992035,0.9397777915000916,0.000125
2.9763958082185127e-05,1.0,0.42595764994621277,0.9397777915000916,0.000125
4.09565182053484e-05,1.0,0.42617571353912354,0.9397777915000916,0.000125
3.781648047151975e-05,1.0,0.42640984058380127,0.9397777915000916,0.000125
5.252601840766147e-05,1.0,0.4266795217990875,0.9395555257797241,0.000125
4.402011109050363e-05,1.0,0.4269576966762543,0.9395555257797241,0.000125
5.1261948101455346e-05,1.0,0.42722639441490173,0.9395555257797241,0.000125
3.932448453269899e-05,1.0,0.4274158179759979,0.9393333196640015,0.000125
5.72808894503396e-05,1.0,0.42752841114997864,0.9393333196640015,0.000125
3.5342633054824546e-05,1.0,0.4275142550468445,0.9393333196640015,0.000125
4.823054405278526e-05,1.0,0.42753908038139343,0.9393333196640015,0.000125
5.041993426857516e-05,1.0,0.4276787340641022,0.9393333196640015,0.000125
2.9432982046273537e-05,1.0,0.4277898669242859,0.9393333196640015,0.000125
6.869069329695776e-05,1.0,0.42754223942756653,0.9393333196640015,0.000125
6.628342816838995e-05,1.0,0.4274313151836395,0.9393333196640015,0.000125
4.157901639700867e-05,1.0,0.4275376498699188,0.9393333196640015,0.000125
4.142004399909638e-05,1.0,0.42759913206100464,0.9393333196640015,0.000125
3.503280095173977e-05,1.0,0.42772597074508667,0.9393333196640015,0.000125
5.1646176871145144e-05,1.0,0.42789384722709656,0.9395555257797241,0.000125
3.8162201235536486e-05,1.0,0.4279615581035614,0.9395555257797241,0.000125
5.744261579820886e-05,1.0,0.42814549803733826,0.9395555257797241,0.000125
3.659387584775686e-05,1.0,0.42823493480682373,0.9395555257797241,0.000125
4.7607943997718394e-05,1.0,0.4283522367477417,0.9395555257797241,0.000125
7.87948229117319e-05,1.0,0.4285702109336853,0.9393333196640015,0.000125
7.46428340789862e-05,1.0,0.4286205768585205,0.9395555257797241,0.000125
6.820734415668994e-05,1.0,0.4283766746520996,0.9397777915000916,0.000125
5.6418448366457596e-05,1.0,0.4281352460384369,0.9397777915000916,0.000125
7.282643491635099e-05,1.0,0.4281112849712372,0.9397777915000916,0.000125
4.4762968173017725e-05,1.0,0.4282965362071991,0.9397777915000916,0.000125
5.297904135659337e-05,1.0,0.4284053146839142,0.9399999976158142,0.000125
4.185991929261945e-05,1.0,0.4282071888446808,0.9399999976158142,0.000125
4.754062683787197e-05,1.0,0.4282125234603882,0.9399999976158142,0.000125
5.3312789532355964e-05,1.0,0.42824098467826843,0.9399999976158142,0.000125
3.321055919514038e-05,1.0,0.42826715111732483,0.9399999976158142,0.000125
3.6239318433217704e-05,1.0,0.4285372793674469,0.9397777915000916,0.000125
5.478490857058205e-05,1.0,0.4285185933113098,0.9397777915000916,0.000125
5.02156290167477e-05,1.0,0.42856279015541077,0.9399999976158142,0.000125
4.208895188639872e-05,1.0,0.4285965859889984,0.9397777915000916,0.000125
3.431538425502367e-05,1.0,0.42867085337638855,0.9397777915000916,0.000125
2.718198811635375e-05,1.0,0.4287056624889374,0.9397777915000916,0.000125
4.119757795706391e-05,1.0,0.4287291169166565,0.9397777915000916,0.000125
5.454479833133519e-05,1.0,0.42891567945480347,0.9395555257797241,0.000125
5.68016039323993e-05,1.0,0.42877185344696045,0.9395555257797241,1e-04
4.947719571646303e-05,1.0,0.42879119515419006,0.9395555257797241,1e-04
6.173668953124434e-05,1.0,0.4288121461868286,0.9395555257797241,1e-04
4.5096410758560523e-05,1.0,0.4287496507167816,0.9395555257797241,1e-04
3.1858147849561647e-05,1.0,0.4288029372692108,0.9395555257797241,1e-04
4.9765385483624414e-05,1.0,0.4289777874946594,0.9395555257797241,1e-04
6.289721932262182e-05,1.0,0.42914092540740967,0.9395555257797241,1e-04
4.088191781193018e-05,1.0,0.4291878044605255,0.9395555257797241,1e-04
6.511312676593661e-05,1.0,0.4292233884334564,0.9397777915000916,1e-04
8.812909800326452e-05,1.0,0.42919066548347473,0.9397777915000916,1e-04
6.234306056285277e-05,1.0,0.4287499189376831,0.9397777915000916,1e-04
7.846737571526319e-05,1.0,0.4286677837371826,0.9399999976158142,1e-04
5.033516208641231e-05,1.0,0.42872461676597595,0.9399999976158142,1e-04
3.640189970610663e-05,1.0,0.4287472367286682,0.9399999976158142,1e-04
6.603824294870719e-05,1.0,0.4287317097187042,0.9399999976158142,1e-04
4.0430360968457535e-05,1.0,0.42883986234664917,0.9399999976158142,1e-04
4.894056837656535e-05,1.0,0.4288507401943207,0.9399999976158142,1e-04
3.83476035494823e-05,1.0,0.4289785921573639,0.9399999976158142,1e-04
7.584421837236732e-05,1.0,0.42916539311408997,0.9399999976158142,1e-04
5.2059735025977716e-05,1.0,0.42931580543518066,0.9397777915000916,1e-04
2.745747951848898e-05,1.0,0.42947161197662354,0.9395555257797241,1e-04
3.236407428630628e-05,1.0,0.4295443594455719,0.9395555257797241,1e-04
0.00011986729077761993,1.0,0.429105669260025,0.9399999976158142,1e-04
4.8106914618983865e-05,1.0,0.4289906620979309,0.9399999976158142,1e-04
2.9696893761865795e-05,1.0,0.4289214015007019,0.9402222037315369,1e-04
4.464694211492315e-05,1.0,0.42901846766471863,0.9397777915000916,1e-04
5.505250737769529e-05,1.0,0.4290395975112915,0.9399999976158142,1e-04
3.529733294271864e-05,1.0,0.4289959669113159,0.9399999976158142,1e-04
3.704383198055439e-05,1.0,0.42914068698883057,0.9402222037315369,1e-04
3.805116648436524e-05,1.0,0.42929941415786743,0.9399999976158142,1e-04
4.4935553887626156e-05,1.0,0.42935213446617126,0.9397777915000916,1e-04
6.043929170118645e-05,1.0,0.4295039474964142,0.9395555257797241,1e-04
5.297960160532966e-05,1.0,0.42985594272613525,0.9395555257797241,1e-04
2.811925151036121e-05,1.0,0.4301671087741852,0.9395555257797241,1e-04
5.349102502805181e-05,1.0,0.4304272532463074,0.9395555257797241,1e-04
3.0254375815275125e-05,1.0,0.4306013584136963,0.9395555257797241,1e-04
6.908585055498406e-05,1.0,0.4309106767177582,0.9395555257797241,1e-04
4.7921879740897566e-05,1.0,0.43115919828414917,0.9395555257797241,1e-04
4.47253514721524e-05,1.0,0.4313613474369049,0.9395555257797241,1e-04
3.2535714126424864e-05,1.0,0.43140751123428345,0.9391111135482788,1e-04
5.89935079915449e-05,1.0,0.43160495162010193,0.9391111135482788,1e-04
6.027678682585247e-05,1.0,0.43152177333831787,0.9393333196640015,1e-04
5.450685057439841e-05,1.0,0.4316924512386322,0.9393333196640015,1e-04
2.433780173305422e-05,1.0,0.43200722336769104,0.9397777915000916,1e-04
3.614848174038343e-05,1.0,0.4320814907550812,0.9397777915000916,1e-04
5.867456638952717e-05,1.0,0.4321654140949249,0.9397777915000916,1e-04
3.808195469900966e-05,1.0,0.4319619834423065,0.9397777915000916,1e-04
3.0217182938940823e-05,1.0,0.43190374970436096,0.9397777915000916,1e-04
6.932911492185667e-05,1.0,0.431342750787735,0.9391111135482788,1e-04
3.5406294045969844e-05,1.0,0.43087437748908997,0.9386666417121887,1e-04
3.7917074223514646e-05,1.0,0.4306899607181549,0.9388889074325562,1e-04
4.54858090961352e-05,1.0,0.43061959743499756,0.9391111135482788,1e-04
5.957556641078554e-05,1.0,0.43061915040016174,0.9395555257797241,1e-04
9.379805851494893e-05,1.0,0.4304759204387665,0.9395555257797241,1e-04
5.340603456716053e-05,1.0,0.43004027009010315,0.9384444355964661,1e-04
4.487096521188505e-05,1.0,0.4299255311489105,0.9382222294807434,1e-04
4.38181305071339e-05,1.0,0.4300478398799896,0.9380000233650208,1e-04
3.371398997842334e-05,1.0,0.4302493631839752,0.9382222294807434,1e-04
7.470021228073165e-05,1.0,0.4307679533958435,0.9386666417121887,1e-04
5.58693973289337e-05,1.0,0.43092188239097595,0.9386666417121887,1e-04
3.1393166864290833e-05,1.0,0.4309079051017761,0.9388889074325562,1e-04
4.1236042306991294e-05,1.0,0.4309486448764801,0.9388889074325562,1e-04
5.544829400605522e-05,1.0,0.4309481084346771,0.9388889074325562,1e-04
4.844949216931127e-05,1.0,0.4309423863887787,0.9395555257797241,1e-04
2.6634583264240064e-05,1.0,0.43073493242263794,0.9397777915000916,1e-04
3.8509690057253465e-05,1.0,0.4307740032672882,0.9397777915000916,1e-04
4.2159117583651096e-05,1.0,0.43095970153808594,0.9397777915000916,1e-04
3.5527929867384955e-05,1.0,0.431176096200943,0.9397777915000916,1e-04
3.809262489085086e-05,1.0,0.43117231130599976,0.9397777915000916,1e-04
2.2962298316997476e-05,1.0,0.4312076270580292,0.9397777915000916,1e-04
3.188151094946079e-05,1.0,0.43130356073379517,0.9397777915000916,1e-04
3.794237272813916e-05,1.0,0.4313816428184509,0.9397777915000916,1e-04
3.8641559513052925e-05,1.0,0.4316848814487457,0.9397777915000916,1e-04
6.015000326442532e-05,1.0,0.43175286054611206,0.9397777915000916,1e-04
2.4636645321152173e-05,1.0,0.43164771795272827,0.9397777915000916,1e-04
2.2344594981404953e-05,1.0,0.4316276013851166,0.9397777915000916,1e-04
2.8123300580773503e-05,1.0,0.4316589832305908,0.9397777915000916,1e-04
2.4021233912208118e-05,1.0,0.43164533376693726,0.9397777915000916,1e-04
7.313732930924743e-05,1.0,0.43134263157844543,0.9397777915000916,1e-04
4.454704685485922e-05,1.0,0.4314155876636505,0.9397777915000916,1e-04
4.930790964863263e-05,1.0,0.43167170882225037,0.9397777915000916,1e-04
4.8291411076206714e-05,1.0,0.4315124750137329,0.9391111135482788,1e-04
4.0046961657935753e-05,1.0,0.43153712153434753,0.9391111135482788,1e-04
4.0299368265550584e-05,1.0,0.431588351726532,0.9391111135482788,1e-04
3.486338027869351e-05,1.0,0.43186429142951965,0.9391111135482788,1e-04
4.0048911614576355e-05,1.0,0.43207302689552307,0.9395555257797241,1e-04
3.780207407544367e-05,1.0,0.4324343800544739,0.9395555257797241,1e-04
2.4593953639850952e-05,1.0,0.43268096446990967,0.9395555257797241,1e-04
6.629504059674218e-05,1.0,0.4328511655330658,0.9395555257797241,1e-04
2.6086647267220542e-05,1.0,0.4330003559589386,0.9397777915000916,1e-04
3.2515323255211115e-05,1.0,0.43302714824676514,0.9397777915000916,1e-04
0.00010368685616413131,1.0,0.4318186342716217,0.9397777915000916,1e-04
5.0524980906629935e-05,1.0,0.4318137466907501,0.9397777915000916,1e-04
6.401704013114795e-05,1.0,0.4323080778121948,0.9397777915000916,1e-04
2.6208976123598404e-05,1.0,0.43242523074150085,0.9397777915000916,1e-04
2.7902897272724658e-05,1.0,0.4325276017189026,0.9397777915000916,1e-04
4.299218562664464e-05,1.0,0.43280330300331116,0.9397777915000916,1e-04
4.27626000600867e-05,1.0,0.4328286349773407,0.9397777915000916,1e-04
2.657369441294577e-05,1.0,0.43286868929862976,0.9397777915000916,1e-04
4.305754555389285e-05,1.0,0.43298590183258057,0.9397777915000916,1e-04
3.231738446629606e-05,1.0,0.43304309248924255,0.9397777915000916,1e-04
3.4708726161625236e-05,1.0,0.4332065284252167,0.9397777915000916,1e-04
2.274769030918833e-05,1.0,0.4332467317581177,0.9397777915000916,1e-04
3.222177838324569e-05,1.0,0.4332927465438843,0.9397777915000916,1e-04
4.0016413549892604e-05,1.0,0.4333401024341583,0.9397777915000916,1e-04
4.461613207240589e-05,1.0,0.433255136013031,0.9397777915000916,1e-04
3.716220089700073e-05,1.0,0.4331776797771454,0.9397777915000916,1e-04
2.814158142427914e-05,1.0,0.43324729800224304,0.9397777915000916,1e-04
4.666206586989574e-05,1.0,0.43325522541999817,0.9397777915000916,1e-04
2.2407602955354378e-05,1.0,0.4328998625278473,0.9397777915000916,1e-04
9.52148693613708e-05,1.0,0.43225550651550293,0.9395555257797241,1e-04
3.048052531084977e-05,1.0,0.43153446912765503,0.9395555257797241,1e-04
2.8527152608148754e-05,1.0,0.43137332797050476,0.9395555257797241,1e-04
3.238587669329718e-05,1.0,0.43141791224479675,0.9395555257797241,1e-04
2.828105971275363e-05,1.0,0.4313722550868988,0.9395555257797241,1e-04
3.0122100724838674e-05,1.0,0.4314153492450714,0.9395555257797241,1e-04
3.907370410161093e-05,1.0,0.4314120411872864,0.9395555257797241,1e-04
2.2918406102689914e-05,1.0,0.43150508403778076,0.9395555257797241,1e-04
4.718495620181784e-05,1.0,0.43171706795692444,0.9395555257797241,1e-04
3.2920564990490675e-05,1.0,0.4319823086261749,0.9395555257797241,1e-04
3.855012255371548e-05,1.0,0.43223080039024353,0.9395555257797241,1e-04
3.5180681152269244e-05,1.0,0.4324549734592438,0.9395555257797241,1e-04
4.13138659496326e-05,1.0,0.43267104029655457,0.9397777915000916,1e-04
4.033381992485374e-05,1.0,0.4325946867465973,0.9395555257797241,1e-04
8.038306259550154e-05,1.0,0.43225714564323425,0.9395555257797241,1e-04
3.7684119888581336e-05,1.0,0.43217355012893677,0.9395555257797241,1e-04
3.6426627048058435e-05,1.0,0.4321898818016052,0.9395555257797241,1e-04
3.639917485998012e-05,1.0,0.43222513794898987,0.9395555257797241,1e-04
2.6488463845453225e-05,1.0,0.4323471784591675,0.9395555257797241,1e-04
3.184664819855243e-05,1.0,0.4324314296245575,0.9395555257797241,1e-04
4.1196213715011254e-05,1.0,0.43266186118125916,0.9395555257797241,1e-04
5.05662574141752e-05,1.0,0.43271660804748535,0.9395555257797241,1e-04
3.1021572794998065e-05,1.0,0.4322783946990967,0.9395555257797241,1e-04
2.3852191588957794e-05,1.0,0.432490736246109,0.9395555257797241,1e-04
3.810406997217797e-05,1.0,0.432760626077652,0.9395555257797241,1e-04
3.944588388549164e-05,1.0,0.43311116099357605,0.9395555257797241,1e-04
9.944105840986595e-05,1.0,0.43279266357421875,0.9395555257797241,1e-04
3.174401354044676e-05,1.0,0.43249306082725525,0.9395555257797241,1e-04
3.268094951636158e-05,1.0,0.43244487047195435,0.9395555257797241,1e-04
2.5077355530811474e-05,1.0,0.4325625002384186,0.9395555257797241,1e-04
4.4298620196059346e-05,1.0,0.4327015280723572,0.9395555257797241,1e-04
4.330248702899553e-05,1.0,0.43268775939941406,0.9395555257797241,1e-04
8.751917630434036e-05,1.0,0.43298351764678955,0.9393333196640015,1e-04
4.755207191919908e-05,1.0,0.4331746995449066,0.9397777915000916,1e-04
3.809417103184387e-05,1.0,0.4331151843070984,0.9395555257797241,1e-04
3.091424878221005e-05,1.0,0.43318453431129456,0.9395555257797241,1e-04
2.3431857698597014e-05,1.0,0.43332964181900024,0.9393333196640015,1e-04
2.9207840270828456e-05,1.0,0.4334496855735779,0.9393333196640015,1e-04
3.6045879824087024e-05,1.0,0.4337596595287323,0.9391111135482788,1e-04
2.2729493139195256e-05,1.0,0.4339626729488373,0.9391111135482788,1e-04
3.521121834637597e-05,1.0,0.4343910217285156,0.9393333196640015,1e-04
2.578727981017437e-05,1.0,0.4347214102745056,0.9393333196640015,1e-04
3.8421814679168165e-05,1.0,0.4350757598876953,0.9393333196640015,1e-04
4.698677730630152e-05,1.0,0.4352497160434723,0.9393333196640015,1e-04
3.278661461081356e-05,1.0,0.4352695643901825,0.9395555257797241,1e-04
9.624840458855033e-05,1.0,0.43479496240615845,0.9395555257797241,1e-04
3.1899791792966425e-05,1.0,0.434474378824234,0.9391111135482788,1e-04
3.922263567801565e-05,1.0,0.4344818890094757,0.9397777915000916,1e-04
4.156496288487688e-05,1.0,0.4346398413181305,0.9397777915000916,1e-04
2.0791927454411052e-05,1.0,0.4347926378250122,0.9399999976158142,1e-04
3.401282447157428e-05,1.0,0.43484172224998474,0.9399999976158142,1e-04
5.101028364151716e-05,1.0,0.4347536265850067,0.9402222037315369,1e-04
2.3722503101453185e-05,1.0,0.43491652607917786,0.9402222037315369,1e-04
2.2753145458409563e-05,1.0,0.4350830614566803,0.9402222037315369,1e-04
2.820433110173326e-05,1.0,0.43516987562179565,0.9402222037315369,1e-04
2.455895628372673e-05,1.0,0.4352833926677704,0.9402222037315369,1e-04
5.368147685658187e-05,1.0,0.43525004386901855,0.9402222037315369,1e-04
3.831244248431176e-05,1.0,0.43548429012298584,0.9404444694519043,1e-04
6.32741503068246e-05,1.0,0.43577155470848083,0.940666675567627,1e-04
4.5455402869265527e-05,1.0,0.4359571933746338,0.940666675567627,1e-04
3.976055813836865e-05,1.0,0.4361724257469177,0.9402222037315369,1e-04
5.934960063314065e-05,1.0,0.4363291263580322,0.9399999976158142,1e-04
2.962694998132065e-05,1.0,0.43617984652519226,0.9402222037315369,1e-04
1.9354052710696124e-05,1.0,0.43607839941978455,0.9402222037315369,1e-04
3.26493609463796e-05,1.0,0.43585050106048584,0.9402222037315369,1e-04
4.1277282434748486e-05,1.0,0.43541744351387024,0.9397777915000916,1e-04
1.9502260329318233e-05,1.0,0.43520206212997437,0.9395555257797241,1e-04
3.721565371961333e-05,1.0,0.43485668301582336,0.9395555257797241,1e-04
3.5439865314401686e-05,1.0,0.43436411023139954,0.9395555257797241,1e-04
2.5939401893992908e-05,1.0,0.4341132640838623,0.9395555257797241,1e-04
3.1988180126063526e-05,1.0,0.43407097458839417,0.9395555257797241,1e-04
3.0483837690553628e-05,1.0,0.4340539872646332,0.9395555257797241,1e-04
5.394485924625769e-05,1.0,0.4340752065181732,0.9395555257797241,1e-04
1.7591502910363488e-05,1.0,0.434379905462265,0.9395555257797241,1e-04
2.5281753551098518e-05,1.0,0.43456321954727173,0.9395555257797241,1e-04
5.0193342758575454e-05,1.0,0.43450236320495605,0.9395555257797241,1e-04
2.5163775717373937e-05,1.0,0.43440550565719604,0.9395555257797241,1e-04
2.5776929760468192e-05,1.0,0.4344591498374939,0.9395555257797241,1e-04
2.5584651666576974e-05,1.0,0.4345822334289551,0.9395555257797241,1e-04
2.0412013327586465e-05,1.0,0.4347745478153229,0.9395555257797241,1e-04
2.2997208361630328e-05,1.0,0.4349242150783539,0.9395555257797241,1e-04
2.5999835997936316e-05,1.0,0.4351192116737366,0.9395555257797241,1e-04
3.231882146792486e-05,1.0,0.43534764647483826,0.9395555257797241,1e-04
2.4398837922490202e-05,1.0,0.4357319474220276,0.9395555257797241,1e-04
5.6902874348452315e-05,1.0,0.4360942244529724,0.9395555257797241,1e-04
5.847081047249958e-05,1.0,0.4358777701854706,0.9395555257797241,1e-04
2.1840747649548575e-05,1.0,0.43514931201934814,0.9393333196640015,1e-04
3.160279811709188e-05,1.0,0.4350658059120178,0.9393333196640015,1e-04
2.372145900153555e-05,1.0,0.43522021174430847,0.9393333196640015,1e-04
2.5936300517059863e-05,1.0,0.43538904190063477,0.9393333196640015,1e-04
3.7368266930570826e-05,1.0,0.4359382390975952,0.9395555257797241,1e-04
5.440639506559819e-05,1.0,0.4363674521446228,0.9395555257797241,1e-04
2.506478449504357e-05,1.0,0.43667498230934143,0.9393333196640015,1e-04
2.9594217267003842e-05,1.0,0.43684789538383484,0.9395555257797241,1e-04
2.621294515847694e-05,1.0,0.4368990957736969,0.9399999976158142,1e-04
2.5202847609762102e-05,1.0,0.4369460642337799,0.9397777915000916,1e-04
3.447076596785337e-05,1.0,0.4369611144065857,0.9399999976158142,1e-04
1.8336464563617483e-05,1.0,0.4366961419582367,0.9399999976158142,1e-04
3.7489644455490634e-05,1.0,0.43658098578453064,0.9404444694519043,1e-04
3.298868250567466e-05,1.0,0.4366041123867035,0.9402222037315369,1e-04
3.3269792766077444e-05,1.0,0.436422735452652,0.9395555257797241,1e-04
2.664858038770035e-05,1.0,0.4362689256668091,0.9395555257797241,1e-04
2.586343907751143e-05,1.0,0.43646377325057983,0.9397777915000916,1e-04
3.895940608344972e-05,1.0,0.4368259608745575,0.9402222037315369,1e-04
2.5580620786058716e-05,1.0,0.43718549609184265,0.9402222037315369,1e-04
3.105038922512904e-05,1.0,0.43718573451042175,0.9402222037315369,1e-04
2.397506614215672e-05,1.0,0.4371061325073242,0.9402222037315369,1e-04
5.1268740207888186e-05,1.0,0.4356624186038971,0.9395555257797241,1e-04
2.3370905182673596e-05,1.0,0.4352908134460449,0.9388889074325562,1e-04
2.8325215680524707e-05,1.0,0.43541017174720764,0.9386666417121887,1e-04
1.9959623386966996e-05,1.0,0.4356480836868286,0.9388889074325562,1e-04
3.1682924600318074e-05,1.0,0.43595564365386963,0.9388889074325562,1e-04
3.7718109524575993e-05,1.0,0.4362492561340332,0.9391111135482788,1e-04
2.5219424060196616e-05,1.0,0.43663734197616577,0.9395555257797241,1e-04
3.1423049222212285e-05,1.0,0.4370052218437195,0.9395555257797241,1e-04
4.8283967771567404e-05,1.0,0.4375028908252716,0.9395555257797241,1e-04
2.6942054319079034e-05,1.0,0.4377760887145996,0.9395555257797241,1e-04
3.981617555837147e-05,1.0,0.43813806772232056,0.9393333196640015,1e-04
2.429819323879201e-05,1.0,0.4385477900505066,0.9393333196640015,1e-04
7.147592987166718e-05,1.0,0.43686559796333313,0.9391111135482788,1e-04
1.841193989093881e-05,1.0,0.4360465109348297,0.9388889074325562,1e-04
6.379243859555572e-05,1.0,0.4359290599822998,0.9384444355964661,1e-04
2.317595499334857e-05,1.0,0.43617066740989685,0.9386666417121887,1e-04
4.631782212527469e-05,1.0,0.43621671199798584,0.9388889074325562,1e-04
2.8847047360613942e-05,1.0,0.4359248876571655,0.9386666417121887,1e-04
2.7080766813014634e-05,1.0,0.4361386299133301,0.9386666417121887,1e-04
3.856556213577278e-05,1.0,0.43675103783607483,0.9386666417121887,1e-04
2.1856059902347624e-05,1.0,0.4372495114803314,0.9388889074325562,1e-04
2.377653436269611e-05,1.0,0.43784528970718384,0.9388889074325562,1e-04
2.1439882402773947e-05,1.0,0.4382222890853882,0.9391111135482788,1e-04
2.130660868715495e-05,1.0,0.4386448860168457,0.9391111135482788,1e-04
3.9559006836498156e-05,1.0,0.43904048204421997,0.9393333196640015,1e-04
2.4031092834775336e-05,1.0,0.4391564428806305,0.9395555257797241,1e-04
7.327350613195449e-05,1.0,0.4393540620803833,0.9391111135482788,1e-04
2.6676934794522822e-05,1.0,0.4385826885700226,0.9380000233650208,1e-04
6.523143383674324e-05,1.0,0.43894681334495544,0.9377777576446533,1e-04
2.4886616301955655e-05,1.0,0.4396355450153351,0.9377777576446533,1e-04
1.7789212506613694e-05,1.0,0.4400883913040161,0.9377777576446533,1e-04
2.8179043511045165e-05,1.0,0.4405496418476105,0.9377777576446533,1e-04
3.528697925503366e-05,1.0,0.44167545437812805,0.9380000233650208,1e-04
1.8028276826953515e-05,1.0,0.4421561062335968,0.9382222294807434,1e-04
5.141023575561121e-05,1.0,0.4424552023410797,0.9382222294807434,1e-04
1.9304530724184588e-05,1.0,0.44252830743789673,0.9388889074325562,1e-04
1.967193020391278e-05,1.0,0.44267329573631287,0.9391111135482788,1e-04
2.0998324544052593e-05,1.0,0.4429192543029785,0.9395555257797241,1e-04
1.9588034774642438e-05,1.0,0.443120539188385,0.9395555257797241,1e-04
2.7707286790246144e-05,1.0,0.4433690011501312,0.9395555257797241,1e-04
2.059388134512119e-05,1.0,0.4433099329471588,0.9393333196640015,1e-04
3.4849617804866284e-05,1.0,0.44312819838523865,0.9393333196640015,1e-04
3.2779989851405844e-05,1.0,0.4431692659854889,0.9395555257797241,1e-04
4.067789632244967e-05,1.0,0.4432460069656372,0.9399999976158142,1e-04
2.687969390535727e-05,1.0,0.4422460198402405,0.9397777915000916,1e-04
2.5159448341582902e-05,1.0,0.44177567958831787,0.9395555257797241,1e-04
2.332134135940578e-05,1.0,0.4413313865661621,0.9397777915000916,1e-04
2.2894833819009364e-05,1.0,0.441252738237381,0.9399999976158142,1e-04
2.874365236493759e-05,1.0,0.44117382168769836,0.9399999976158142,1e-04
2.076297823805362e-05,1.0,0.441010057926178,0.9402222037315369,1e-04
2.3333419449045323e-05,1.0,0.440982848405838,0.9402222037315369,1e-04
1.916626024467405e-05,1.0,0.4409533739089966,0.9402222037315369,1e-04
2.633997064549476e-05,1.0,0.44092345237731934,0.9402222037315369,1e-04
7.909388659754768e-05,1.0,0.44099366664886475,0.9402222037315369,1e-04
2.574991412984673e-05,1.0,0.4394661486148834,0.9402222037315369,1e-04
3.354475484229624e-05,1.0,0.43860453367233276,0.9402222037315369,1e-04
3.429034768487327e-05,1.0,0.4384940564632416,0.9404444694519043,1e-04
1.930714824993629e-05,1.0,0.43840014934539795,0.9404444694519043,1e-04
3.461435699136928e-05,1.0,0.4388270378112793,0.940666675567627,1e-04
2.771072104224004e-05,1.0,0.43923985958099365,0.9402222037315369,1e-04
3.548087988747284e-05,1.0,0.44009867310523987,0.9402222037315369,1e-04
3.338475653436035e-05,1.0,0.4403931796550751,0.9402222037315369,1e-04
3.7753157812403515e-05,1.0,0.439919114112854,0.9402222037315369,1e-04
1.7386546460329555e-05,1.0,0.4397481679916382,0.9402222037315369,1e-04
2.4606417355244048e-05,1.0,0.4397830367088318,0.9402222037315369,1e-04
2.069743823085446e-05,1.0,0.43975523114204407,0.9404444694519043,1e-04
2.9905997507739812e-05,1.0,0.43962401151657104,0.940666675567627,1e-04
1.654252082516905e-05,1.0,0.43978646397590637,0.940666675567627,1e-04
1.967979915207252e-05,1.0,0.4399944245815277,0.9404444694519043,1e-04
3.283218029537238e-05,1.0,0.44032105803489685,0.9404444694519043,1e-04
1.824699211283587e-05,1.0,0.44050684571266174,0.9402222037315369,1e-04
2.06173299375223e-05,1.0,0.4407510757446289,0.9402222037315369,1e-04
1.584891288075596e-05,1.0,0.4409983158111572,0.9402222037315369,1e-04
3.085109347011894e-05,1.0,0.44134753942489624,0.9402222037315369,1e-04
3.0290391805465333e-05,1.0,0.4419897794723511,0.9404444694519043,1e-04
2.626847526698839e-05,1.0,0.4420303404331207,0.9404444694519043,1e-04
3.9987578929867595e-05,1.0,0.44104641675949097,0.9397777915000916,1e-04
2.639106969581917e-05,1.0,0.44077542424201965,0.9397777915000916,1e-04
2.062373278022278e-05,1.0,0.4409862160682678,0.9395555257797241,1e-04
4.8060166591312736e-05,1.0,0.44149497151374817,0.9397777915000916,1e-04
3.644340540631674e-05,1.0,0.4418807029724121,0.9404444694519043,1e-04
2.8630334782064892e-05,1.0,0.44181695580482483,0.9402222037315369,1e-04
2.3716414943919517e-05,1.0,0.4416728913784027,0.9402222037315369,1e-04
2.5419654775760137e-05,1.0,0.44140157103538513,0.9402222037315369,1e-04
2.96240523312008e-05,1.0,0.44160521030426025,0.9402222037315369,1e-04
2.6861316655413248e-05,1.0,0.4413703978061676,0.9404444694519043,1e-04
2.352446063014213e-05,1.0,0.4405072033405304,0.9393333196640015,1e-04
2.7131654860568233e-05,1.0,0.44049695134162903,0.9386666417121887,1e-04
2.7923251764150336e-05,1.0,0.44081705808639526,0.9386666417121887,1e-04
2.435446913295891e-05,1.0,0.44133460521698,0.9388889074325562,1e-04
2.4771883545327e-05,1.0,0.44199275970458984,0.9393333196640015,1e-04
2.932490133389365e-05,1.0,0.4428263008594513,0.9397777915000916,1e-04
4.005153095931746e-05,1.0,0.44332629442214966,0.9399999976158142,1e-04
2.3146552848629653e-05,1.0,0.44321927428245544,0.9393333196640015,1e-04
2.6558871468296275e-05,1.0,0.443124383687973,0.9388889074325562,1e-04
2.8507982278824784e-05,1.0,0.4424985647201538,0.9388889074325562,1e-04
3.0240995329222642e-05,1.0,0.4422348737716675,0.9386666417121887,1e-04
2.2405889467336237e-05,1.0,0.4425240159034729,0.9386666417121887,1e-04
1.4994044249760918e-05,1.0,0.44298169016838074,0.9388889074325562,1e-04
2.9832450309186243e-05,1.0,0.44346094131469727,0.9388889074325562,1e-04
2.7423486244515516e-05,1.0,0.4434196650981903,0.9391111135482788,1e-04
2.5956242097890936e-05,1.0,0.4436441659927368,0.9393333196640015,1e-04
3.5594217479228973e-05,1.0,0.44358962774276733,0.9391111135482788,1e-04
1.5723786418675445e-05,1.0,0.44343021512031555,0.9386666417121887,1e-04
1.97238041437231e-05,1.0,0.4435422718524933,0.9386666417121887,1e-04
4.0381113649345934e-05,1.0,0.44332391023635864,0.9386666417121887,1e-04
1.579178024257999e-05,1.0,0.443372517824173,0.9388889074325562,1e-04
2.3875318220234476e-05,1.0,0.44378018379211426,0.9391111135482788,1e-04
2.0979412511223927e-05,1.0,0.4443497359752655,0.9393333196640015,1e-04
2.5089308110182174e-05,1.0,0.44501033425331116,0.9395555257797241,1e-04
1.537424759590067e-05,1.0,0.4454047679901123,0.9397777915000916,1e-04
2.067116292892024e-05,1.0,0.4457155168056488,0.9399999976158142,1e-04
1.821261139411945e-05,1.0,0.4458604156970978,0.9404444694519043,1e-04
1.8694152458920144e-05,1.0,0.4458109736442566,0.940666675567627,1e-04
1.694370985205751e-05,1.0,0.44592782855033875,0.940666675567627,1e-04
2.0519588360912167e-05,1.0,0.44605112075805664,0.940666675567627,1e-04
1.5022322259028442e-05,1.0,0.44614464044570923,0.940666675567627,1e-04
3.0238872568588704e-05,1.0,0.44567635655403137,0.940666675567627,1e-04
1.8713024473981932e-05,1.0,0.44555559754371643,0.940666675567627,1e-04
1.607930607860908e-05,1.0,0.4457204341888428,0.940666675567627,1e-04
1.9596231140894815e-05,1.0,0.445989191532135,0.940666675567627,1e-04
4.1767849324969575e-05,1.0,0.4452274739742279,0.940666675567627,1e-04
2.3148750187829137e-05,1.0,0.4450733959674835,0.940666675567627,1e-04
1.7256168575841002e-05,1.0,0.44508108496665955,0.9404444694519043,1e-04
1.6542944649700075e-05,1.0,0.44525328278541565,0.9404444694519043,1e-04
1.8683873349800706e-05,1.0,0.4455679655075073,0.9404444694519043,1e-04
2.51741184911225e-05,1.0,0.44564661383628845,0.9404444694519043,1e-04
1.484500626247609e-05,1.0,0.44552671909332275,0.9404444694519043,1e-04
1.6004161807359196e-05,1.0,0.4455139935016632,0.9404444694519043,1e-04
2.592075543361716e-05,1.0,0.445491760969162,0.9404444694519043,1e-04
2.0250734451110475e-05,1.0,0.44533029198646545,0.9404444694519043,1e-04
1.6264364603557624e-05,1.0,0.44529733061790466,0.940666675567627,1e-04
1.1982667274423875e-05,1.0,0.4452795088291168,0.940666675567627,1e-04
2.0384490198921412e-05,1.0,0.44539061188697815,0.940666675567627,1e-04
2.5394429030711763e-05,1.0,0.44560152292251587,0.9411110877990723,1e-04
5.6462631619069725e-05,1.0,0.44671303033828735,0.9411110877990723,1e-04
1.3959396710561123e-05,1.0,0.44786450266838074,0.9411110877990723,1e-04
1.6019346730899997e-05,1.0,0.4483388364315033,0.9411110877990723,1e-04
4.8580881411908194e-05,1.0,0.44807347655296326,0.9415555596351624,1e-04
2.1064761313027702e-05,1.0,0.447567880153656,0.941777765750885,1e-04
1.5230316421366297e-05,1.0,0.4471069276332855,0.9419999718666077,1e-04
2.8489495889516547e-05,1.0,0.44684872031211853,0.9419999718666077,1e-04
2.3146718376665376e-05,1.0,0.44637420773506165,0.9415555596351624,1e-04
2.440908065182157e-05,1.0,0.4465535581111908,0.9413333535194397,1e-04
2.9147631721571088e-05,1.0,0.44611987471580505,0.9408888816833496,1e-04
1.720112959446851e-05,1.0,0.44549599289894104,0.940666675567627,1e-04
2.3629298084415495e-05,1.0,0.44526195526123047,0.940666675567627,1e-04
2.9041584639344364e-05,1.0,0.44498807191848755,0.940666675567627,1e-04
1.5291852832888253e-05,1.0,0.4450468122959137,0.940666675567627,1e-04
1.7937349184649065e-05,1.0,0.44544434547424316,0.9408888816833496,1e-04
2.169192157452926e-05,1.0,0.44578075408935547,0.9408888816833496,1e-04
2.3720680474070832e-05,1.0,0.44586381316185,0.940666675567627,1e-04
1.3588927686214447e-05,1.0,0.4456685483455658,0.940666675567627,1e-04
1.5843708752072416e-05,1.0,0.44592756032943726,0.9408888816833496,1e-04
2.1164514691918157e-05,1.0,0.4463455379009247,0.9408888816833496,1e-04
2.598610990389716e-05,1.0,0.4470316469669342,0.940666675567627,1e-04
2.2778782295063138e-05,1.0,0.44761422276496887,0.9408888816833496,1e-04
1.1363946214260068e-05,1.0,0.44797244668006897,0.9408888816833496,1e-04
4.096807970199734e-05,1.0,0.4481866955757141,0.9408888816833496,1e-04
1.6201709513552487e-05,1.0,0.44775205850601196,0.9408888816833496,1e-04
1.8342601833865047e-05,1.0,0.4476531744003296,0.9408888816833496,1e-04
1.5583180356770754e-05,1.0,0.44744840264320374,0.940666675567627,1e-04
1.6943547962000594e-05,1.0,0.4476747512817383,0.9408888816833496,1e-04
2.399807817710098e-05,1.0,0.44778352975845337,0.9408888816833496,1e-04
2.3292624973692e-05,1.0,0.44759702682495117,0.9408888816833496,1e-04
1.243458336830372e-05,1.0,0.4474698305130005,0.940666675567627,1e-04
1.736708145472221e-05,1.0,0.4476138949394226,0.940666675567627,1e-04
2.4489818315487355e-05,1.0,0.44805148243904114,0.9408888816833496,1e-04
1.6527421394130215e-05,1.0,0.44823652505874634,0.9404444694519043,1e-04
4.626503505278379e-05,1.0,0.4475999176502228,0.9397777915000916,1e-04
2.6505838832235895e-05,1.0,0.4471057057380676,0.9391111135482788,1e-04
2.2627929865848273e-05,1.0,0.44733917713165283,0.9393333196640015,1e-04
1.4153350093693007e-05,1.0,0.4475252330303192,0.9395555257797241,1e-04
1.988396979868412e-05,1.0,0.4477369785308838,0.9397777915000916,1e-04
2.7760990633396432e-05,1.0,0.4471300542354584,0.9397777915000916,1e-04
1.9271094060968608e-05,1.0,0.4468585252761841,0.9402222037315369,1e-04
1.4459193153015804e-05,1.0,0.44660428166389465,0.9404444694519043,1e-04
1.3475099876814056e-05,1.0,0.4462314248085022,0.940666675567627,1e-04
1.683616210357286e-05,1.0,0.44628697633743286,0.940666675567627,1e-04
1.6446892914245836e-05,1.0,0.4466036260128021,0.940666675567627,1e-04
2.082710670947563e-05,1.0,0.4465363919734955,0.9404444694519043,1e-04
0.00012410475756041706,1.0,0.4460609257221222,0.9397777915000916,1e-04
1.4785795428906567e-05,1.0,0.4461674094200134,0.9395555257797241,1e-04
2.2108215489424765e-05,1.0,0.4467215836048126,0.9391111135482788,1e-04
2.323463195352815e-05,1.0,0.447209894657135,0.9391111135482788,1e-04
1.3747439879807644e-05,1.0,0.4478141665458679,0.9391111135482788,1e-04
2.2783766326028854e-05,1.0,0.4484702944755554,0.9393333196640015,1e-04
1.689981399977114e-05,1.0,0.4490157961845398,0.9393333196640015,1e-04
1.488697853346821e-05,1.0,0.44956451654434204,0.9391111135482788,1e-04
6.348427996272221e-05,1.0,0.4497596025466919,0.9393333196640015,1e-04
2.5538976842653938e-05,1.0,0.44885653257369995,0.9395555257797241,1e-04
2.2824366169515997e-05,1.0,0.44957512617111206,0.9397777915000916,1e-04
2.3839480491005816e-05,1.0,0.45052507519721985,0.9395555257797241,1e-04
1.619557588128373e-05,1.0,0.45176371932029724,0.9397777915000916,1e-04
7.391520193777978e-05,1.0,0.452237069606781,0.9399999976158142,1e-04
1.9971996152889915e-05,1.0,0.44924458861351013,0.9391111135482788,1e-04
1.5579311366309412e-05,1.0,0.44787290692329407,0.9397777915000916,1e-04
1.6866404621396214e-05,1.0,0.4474273920059204,0.9397777915000916,1e-04
1.2582138879224658e-05,1.0,0.44722723960876465,0.9397777915000916,1e-04
1.9286175302113406e-05,1.0,0.4474908709526062,0.9404444694519043,1e-04
2.31681224249769e-05,1.0,0.44760042428970337,0.9408888816833496,1e-04
2.1728654246544465e-05,1.0,0.4476291239261627,0.9408888816833496,1e-04
2.5653516786405817e-05,1.0,0.4476029574871063,0.9413333535194397,1e-04
1.612361847946886e-05,1.0,0.44718605279922485,0.9413333535194397,1e-04
2.4376020519412123e-05,1.0,0.44723957777023315,0.9411110877990723,1e-04
5.093886284157634e-05,1.0,0.44691112637519836,0.941777765750885,1e-04
1.4163885680318344e-05,1.0,0.4461764097213745,0.9426666498184204,1e-04
1.7462207324570045e-05,1.0,0.4462762773036957,0.9424444437026978,1e-04
1.3525182112061884e-05,1.0,0.4462675154209137,0.9424444437026978,1e-04
1.6730324205127545e-05,1.0,0.44638219475746155,0.9424444437026978,1e-04
2.997137198690325e-05,1.0,0.44623589515686035,0.9415555596351624,1e-04
1.5493360479013063e-05,1.0,0.4461059868335724,0.9415555596351624,1e-04
2.4730083168833517e-05,1.0,0.4465581476688385,0.9415555596351624,1e-04
2.2174612240632996e-05,1.0,0.4471207559108734,0.9413333535194397,1e-04
3.883256795234047e-05,1.0,0.44763442873954773,0.9413333535194397,1e-04
1.8037047993857414e-05,1.0,0.44764092564582825,0.9413333535194397,1e-04
1.5619194527971558e-05,1.0,0.4479255676269531,0.9413333535194397,1e-04
2.4571229005232453e-05,1.0,0.44822078943252563,0.9413333535194397,1e-04
1.3669548025063705e-05,1.0,0.44883105158805847,0.9413333535194397,1e-04
3.3764248655643314e-05,1.0,0.44954031705856323,0.941777765750885,1e-04
1.2674788194999564e-05,1.0,0.4499953091144562,0.9415555596351624,1e-04
1.4010570339451078e-05,1.0,0.45011311769485474,0.9419999718666077,1e-04
1.428163523087278e-05,1.0,0.45024609565734863,0.9419999718666077,1e-04
1.603334749233909e-05,1.0,0.4505384862422943,0.9415555596351624,1e-04
1.59627652465133e-05,1.0,0.4508152902126312,0.9419999718666077,1e-04
2.2057907699490897e-05,1.0,0.4508554935455322,0.9422222375869751,1e-04
1.0886038580792956e-05,1.0,0.4504469633102417,0.9419999718666077,1e-04
1.2354320460872259e-05,1.0,0.45037662982940674,0.941777765750885,1e-04
1.888137740024831e-05,1.0,0.4504275619983673,0.941777765750885,1e-04
9.793348908715416e-06,1.0,0.4505924880504608,0.9413333535194397,1e-04
1.7426811609766446e-05,1.0,0.45081135630607605,0.9411110877990723,1e-04
8.947903552325442e-06,1.0,0.45109742879867554,0.9408888816833496,1e-04
1.602524207555689e-05,1.0,0.45161452889442444,0.9408888816833496,1e-04
2.0245215637260117e-05,1.0,0.4522213935852051,0.9411110877990723,1e-04
1.9407265426707454e-05,1.0,0.45241621136665344,0.940666675567627,1e-04
3.406117684789933e-05,1.0,0.45429152250289917,0.9411110877990723,1e-04
2.5515779270790517e-05,1.0,0.45248356461524963,0.9399999976158142,1e-04
1.710231663309969e-05,1.0,0.45175471901893616,0.9397777915000916,1e-04
1.845083352236543e-05,1.0,0.45136770606040955,0.9397777915000916,1e-04
1.2451326256268658e-05,1.0,0.4501971900463104,0.9397777915000916,1e-04
1.4806797480559908e-05,1.0,0.45000624656677246,0.9397777915000916,1e-04
1.8568187442724593e-05,1.0,0.45062217116355896,0.9395555257797241,1e-04
2.2557898773811758e-05,1.0,0.45148012042045593,0.9395555257797241,1e-04
1.7408878193236887e-05,1.0,0.45234084129333496,0.9402222037315369,1e-04
1.472699295845814e-05,1.0,0.45268920063972473,0.9402222037315369,1e-04
1.5498357242904603e-05,1.0,0.4527125060558319,0.9402222037315369,1e-04
1.5128659470065031e-05,1.0,0.45259466767311096,0.940666675567627,1e-04
1.3181274880480487e-05,1.0,0.4528201222419739,0.9408888816833496,1e-04
1.387558768328745e-05,1.0,0.4531424343585968,0.9408888816833496,1e-04
1.3273977856442798e-05,1.0,0.45333176851272583,0.9408888816833496,1e-04
1.090113801183179e-05,1.0,0.4534522593021393,0.9408888816833496,1e-04
1.6653521015541628e-05,1.0,0.4539200961589813,0.940666675567627,1e-04
1.1412672392907552e-05,1.0,0.4543863534927368,0.940666675567627,1e-04
2.096911339322105e-05,1.0,0.4541684687137604,0.940666675567627,1e-04
1.0430615475343075e-05,1.0,0.4540790319442749,0.9413333535194397,1e-04
1.7534148355480283e-05,1.0,0.4541446268558502,0.9415555596351624,1e-04
1.0286553333571646e-05,1.0,0.4545758068561554,0.941777765750885,1e-04
8.468648047710303e-06,1.0,0.4550444483757019,0.9415555596351624,1e-04
1.87979076144984e-05,1.0,0.455104261636734,0.9415555596351624,1e-04
1.829880420700647e-05,1.0,0.4554111361503601,0.9419999718666077,1e-04
1.3709834092878737e-05,1.0,0.4552367627620697,0.941777765750885,1e-04
8.4465364125208e-06,1.0,0.4547368288040161,0.941777765750885,1e-04
1.2955626516486518e-05,1.0,0.4546857476234436,0.9413333535194397,1e-04
1.2633196092792787e-05,1.0,0.4552002549171448,0.9413333535194397,1e-04
1.2763488484779373e-05,1.0,0.4556500017642975,0.9415555596351624,1e-04
8.780566531640943e-06,1.0,0.4559880197048187,0.9415555596351624,1e-04
2.3072298063198105e-05,1.0,0.4552253782749176,0.9408888816833496,1e-04
1.674378290772438e-05,1.0,0.45479732751846313,0.9411110877990723,1e-04
1.8033995729638264e-05,1.0,0.45504263043403625,0.940666675567627,1e-04
1.0458202268637251e-05,1.0,0.4548373222351074,0.940666675567627,1e-04
1.3273179320094641e-05,1.0,0.4545610547065735,0.940666675567627,1e-04
1.0337087587686256e-05,1.0,0.45455363392829895,0.9404444694519043,1e-04
8.664682354719844e-06,1.0,0.45477423071861267,0.9404444694519043,1e-04
1.4210591871233191e-05,1.0,0.45505791902542114,0.9404444694519043,1e-04
1.900245842989534e-05,1.0,0.4553121328353882,0.940666675567627,1e-04
1.6322221199516207e-05,1.0,0.45539766550064087,0.9408888816833496,1e-04
1.2074152436980512e-05,1.0,0.45578765869140625,0.9413333535194397,1e-04
1.710934520815499e-05,1.0,0.45573940873146057,0.9413333535194397,1e-04
9.629031410440803e-06,1.0,0.45573773980140686,0.9413333535194397,1e-04
1.2899156899948139e-05,1.0,0.45604845881462097,0.9411110877990723,1e-04
1.4472201655735262e-05,1.0,0.45613569021224976,0.9413333535194397,1e-04
1.0608872798911761e-05,1.0,0.4564807415008545,0.9413333535194397,1e-04
1.6655361832818016e-05,1.0,0.4568375051021576,0.9415555596351624,1e-04
1.2775544746546075e-05,1.0,0.4569399952888489,0.9415555596351624,1e-04
1.1526381967996713e-05,1.0,0.45649978518486023,0.9413333535194397,1e-04
1.3474616025632713e-05,1.0,0.4564328193664551,0.9411110877990723,1e-04
1.0885877600230742e-05,1.0,0.45665299892425537,0.940666675567627,1e-04
1.537945900054183e-05,1.0,0.4569093883037567,0.940666675567627,1e-04
9.703600881039165e-06,1.0,0.4572393596172333,0.9411110877990723,1e-04
1.4112335520621855e-05,1.0,0.45787370204925537,0.9408888816833496,1e-04
1.4827786799287423e-05,1.0,0.45826882123947144,0.940666675567627,1e-04
8.84160090208752e-06,1.0,0.4583534598350525,0.940666675567627,1e-04
1.0570591257419437e-05,1.0,0.45892995595932007,0.940666675567627,1e-04
3.0391707696253434e-05,1.0,0.45905256271362305,0.9408888816833496,1e-04
1.1127537618449423e-05,1.0,0.45954009890556335,0.9411110877990723,1e-04
3.650705548352562e-05,1.0,0.4590018391609192,0.9411110877990723,1e-04
1.6996320482576266e-05,1.0,0.45534950494766235,0.9382222294807434,1e-04
1.0215698239335325e-05,1.0,0.45514047145843506,0.9368888735771179,1e-04
1.1279227692284621e-05,1.0,0.45510727167129517,0.9371111392974854,1e-04
1.4969240510254167e-05,1.0,0.4558967053890228,0.9375555515289307,1e-04
1.8904951502918266e-05,1.0,0.45719465613365173,0.9382222294807434,1e-04
1.639071706449613e-05,1.0,0.4583880603313446,0.9391111135482788,1e-04
1.6711477655917406e-05,1.0,0.4591299891471863,0.9393333196640015,1e-04
1.1179967259522527e-05,1.0,0.4599016308784485,0.9399999976158142,1e-04
1.1471694051579107e-05,1.0,0.4603267014026642,0.9402222037315369,1e-04
1.5650774003006518e-05,1.0,0.4609474241733551,0.9402222037315369,1e-04
1.2755902389471885e-05,1.0,0.4615836441516876,0.9402222037315369,1e-04
1.326203164353501e-05,1.0,0.4620841443538666,0.9404444694519043,1e-04
1.941113077918999e-05,1.0,0.4625982642173767,0.9402222037315369,1e-04
2.125392529706005e-05,1.0,0.4630906581878662,0.9399999976158142,1e-04
1.18506368380622e-05,1.0,0.463212251663208,0.9399999976158142,1e-04
1.2733717085211538e-05,1.0,0.46335694193840027,0.9402222037315369,1e-04
1.7984535588766448e-05,1.0,0.4633590579032898,0.9402222037315369,1e-04
2.2038932002033107e-05,1.0,0.462893009185791,0.9399999976158142,1e-04
9.42994392971741e-06,1.0,0.462602823972702,0.9402222037315369,1e-04
8.336612154380418e-06,1.0,0.4627341032028198,0.9402222037315369,1e-04
1.945788062585052e-05,1.0,0.46366438269615173,0.9404444694519043,1e-04
1.501071255916031e-05,1.0,0.46418365836143494,0.9408888816833496,1e-04
1.2506619896157645e-05,1.0,0.4639940857887268,0.9411110877990723,1e-04
1.2081416571163572e-05,1.0,0.4638040363788605,0.9413333535194397,1e-04
1.2003908523183782e-05,1.0,0.4640020728111267,0.9413333535194397,1e-04
1.1764980627049226e-05,1.0,0.46387630701065063,0.9413333535194397,1e-04
8.436867574346252e-06,1.0,0.4634525775909424,0.9413333535194397,1e-04
8.889472155715339e-06,1.0,0.4633006751537323,0.9413333535194397,1e-04
8.835608241497539e-06,1.0,0.46343961358070374,0.9413333535194397,1e-04
9.215616955771111e-06,1.0,0.4637235701084137,0.9411110877990723,1e-04
0.0001452039577998221,1.0,0.45795392990112305,0.9377777576446533,1e-04
0.00017048331210389733,1.0,0.5063171982765198,0.9204444289207458,1e-04
9.362243872601539e-05,1.0,0.4816739857196808,0.9424444437026978,1e-04
8.178171992767602e-05,1.0,0.48222726583480835,0.9437777996063232,1e-04
4.35817964898888e-05,1.0,0.47013410925865173,0.9351111054420471,1e-04
4.411131885717623e-05,1.0,0.4652961790561676,0.9377777576446533,1e-04
2.766462421277538e-05,1.0,0.46625813841819763,0.9377777576446533,1e-04
1.6390626115025952e-05,1.0,0.4679452180862427,0.9380000233650208,1e-04
1.937118395289872e-05,1.0,0.4686795771121979,0.9386666417121887,1e-04
9.263465472031385e-06,1.0,0.469381719827652,0.9404444694519043,1e-04
1.5384326616185717e-05,1.0,0.4690062999725342,0.9408888816833496,1e-04
1.5234096281346865e-05,1.0,0.4682582914829254,0.9411110877990723,1e-04
2.7409731046645902e-05,1.0,0.46754756569862366,0.9413333535194397,1e-04
1.1530660231073853e-05,1.0,0.4670338034629822,0.9413333535194397,1e-04
9.494789082964417e-06,1.0,0.4667225480079651,0.9413333535194397,1e-04
9.469753422308713e-06,1.0,0.4663763642311096,0.941777765750885,1e-04
1.0621596629789565e-05,1.0,0.4661620557308197,0.9419999718666077,1e-04
1.1138525223941542e-05,1.0,0.4657764732837677,0.9419999718666077,1e-04
2.1246372853056528e-05,1.0,0.4651646614074707,0.9422222375869751,1e-04
1.5582580090267584e-05,1.0,0.4643879532814026,0.9419999718666077,1e-04
1.1139914931845851e-05,1.0,0.46422725915908813,0.9419999718666077,1e-04
1.3849613424099516e-05,1.0,0.4641437828540802,0.9419999718666077,1e-04
1.2080029591743369e-05,1.0,0.4640201926231384,0.9424444437026978,1e-04
2.184615186706651e-05,1.0,0.4633452594280243,0.9424444437026978,1e-04
1.1931337212445214e-05,1.0,0.4619940221309662,0.9424444437026978,1e-04
2.138947274943348e-05,1.0,0.4603954553604126,0.9422222375869751,1e-04
1.2960858839505818e-05,1.0,0.46036386489868164,0.9419999718666077,1e-04
1.227984466822818e-05,1.0,0.4606122076511383,0.9422222375869751,1e-04
1.0697849575080909e-05,1.0,0.4611697196960449,0.9419999718666077,1e-04
2.17774068005383e-05,1.0,0.4618595838546753,0.9415555596351624,1e-04
1.1579197234823368e-05,1.0,0.4629061818122864,0.9415555596351624,1e-04
9.90906119113788e-06,1.0,0.46358442306518555,0.9415555596351624,1e-04
9.68686981650535e-06,1.0,0.46401530504226685,0.9415555596351624,1e-04
2.3043097826302983e-05,1.0,0.46404382586479187,0.9415555596351624,1e-04
1.2480035366024822e-05,1.0,0.4643538296222687,0.941777765750885,1e-04
1.92169700312661e-05,1.0,0.46408408880233765,0.9415555596351624,1e-04
1.4959081454435363e-05,1.0,0.46387895941734314,0.9415555596351624,1e-04
1.4584889868274331e-05,1.0,0.46323925256729126,0.9415555596351624,1e-04
1.312836138822604e-05,1.0,0.4623134732246399,0.9415555596351624,1e-04
8.300768968183547e-06,1.0,0.46205398440361023,0.9413333535194397,1e-04
1.3631667570734862e-05,1.0,0.46082714200019836,0.9413333535194397,1e-04
8.708639143151231e-06,1.0,0.46070459485054016,0.941777765750885,1e-04
8.820827133604325e-06,1.0,0.4608885645866394,0.9415555596351624,1e-04
1.6941061403485946e-05,1.0,0.4612784683704376,0.941777765750885,1e-04
9.943421900970861e-06,1.0,0.46182551980018616,0.941777765750885,1e-04
5.681693437509239e-06,1.0,0.4623526334762573,0.941777765750885,1e-04
8.221491953008808e-06,1.0,0.46281227469444275,0.9415555596351624,1e-04
1.045977660396602e-05,1.0,0.4632025957107544,0.9415555596351624,1e-04
5.473061719385441e-06,1.0,0.4635491669178009,0.941777765750885,1e-04
1.5887173503870144e-05,1.0,0.4643881320953369,0.9413333535194397,1e-04
8.425233318121172e-06,1.0,0.4651194214820862,0.9413333535194397,1e-04
1.6025156583054923e-05,1.0,0.4657825529575348,0.9413333535194397,1e-04
5.175739715923555e-06,1.0,0.46661996841430664,0.9411110877990723,1e-04
1.2303153198445216e-05,1.0,0.4668707251548767,0.9411110877990723,1e-04
8.50269316288177e-06,1.0,0.4669480323791504,0.9413333535194397,1e-04
8.530478226020932e-06,1.0,0.4669320285320282,0.9413333535194397,1e-04
6.775256679247832e-06,1.0,0.46708664298057556,0.9413333535194397,1e-04
8.36255458125379e-06,1.0,0.46713876724243164,0.9413333535194397,1e-04
5.42251609658706e-06,1.0,0.4673496186733246,0.9413333535194397,1e-04
9.417868568561971e-06,1.0,0.46777939796447754,0.9413333535194397,1e-04
1.0516710062802304e-05,1.0,0.4675803482532501,0.9413333535194397,1e-04
1.0378244041930884e-05,1.0,0.46746739745140076,0.9413333535194397,1e-04
2.008830415434204e-05,1.0,0.4677007496356964,0.9411110877990723,1e-04
1.6024305296014063e-05,1.0,0.4678293764591217,0.9408888816833496,1e-04
1.7038504665833898e-05,1.0,0.4679540991783142,0.9408888816833496,1e-04
1.2029305253236089e-05,1.0,0.4680901765823364,0.9408888816833496,1e-04
6.858203960291576e-06,1.0,0.46813806891441345,0.9408888816833496,1e-04
1.4855242625344545e-05,1.0,0.4680362343788147,0.9408888816833496,1e-04
1.0641594599292148e-05,1.0,0.46800926327705383,0.9408888816833496,1e-04
1.0806226782733575e-05,1.0,0.4677715301513672,0.9408888816833496,1e-04
9.213864359480795e-06,1.0,0.46799924969673157,0.9408888816833496,1e-04
4.543017439573305e-06,1.0,0.4683762490749359,0.9404444694519043,1e-04
8.976788194559049e-06,1.0,0.46876585483551025,0.9404444694519043,1e-04
1.5936468116706237e-05,1.0,0.4692206382751465,0.940666675567627,1e-04
8.961661478679162e-06,1.0,0.4693259596824646,0.940666675567627,1e-04
7.020298198767705e-06,1.0,0.46964481472969055,0.940666675567627,1e-04
1.0147253306058701e-05,1.0,0.46978792548179626,0.940666675567627,1e-04
8.782999429968186e-06,1.0,0.4698944687843323,0.940666675567627,1e-04
1.1553524018381722e-05,1.0,0.46977782249450684,0.9413333535194397,1e-04
1.1121238458144944e-05,1.0,0.46823328733444214,0.9413333535194397,1e-04
8.394462383876089e-06,1.0,0.4674052596092224,0.9413333535194397,1e-04
7.1654844759905245e-06,1.0,0.4670775234699249,0.9411110877990723,1e-04
6.818060228397371e-06,1.0,0.4669463336467743,0.9411110877990723,1e-04
5.978038643661421e-06,1.0,0.4668390154838562,0.9408888816833496,1e-04
7.423280749208061e-06,1.0,0.4672757685184479,0.9408888816833496,1e-04
1.1046381587220822e-05,1.0,0.4676518440246582,0.9408888816833496,1e-04
8.474056812701747e-06,1.0,0.4682301878929138,0.940666675567627,1e-04
5.250130016065668e-06,1.0,0.4686948359012604,0.940666675567627,1e-04
1.0282742550771218e-05,1.0,0.46915489435195923,0.9404444694519043,1e-04
1.5911546142888255e-05,1.0,0.46885713934898376,0.9404444694519043,1e-04
6.718049007758964e-06,1.0,0.46845540404319763,0.9402222037315369,1e-04
1.1672514119709376e-05,1.0,0.46865344047546387,0.9404444694519043,1e-04
7.265157819347223e-06,1.0,0.46895307302474976,0.9408888816833496,1e-04
7.422442649840377e-06,1.0,0.46933844685554504,0.9404444694519043,1e-04
7.398467460006941e-06,1.0,0.4694973826408386,0.9404444694519043,1e-04
7.315461971302284e-06,1.0,0.4699317514896393,0.9402222037315369,1e-04
5.954601419944083e-06,1.0,0.470197856426239,0.9404444694519043,1e-04
9.201766260957811e-06,1.0,0.47058501839637756,0.9404444694519043,1e-04
7.759886102576274e-06,1.0,0.47128549218177795,0.9404444694519043,1e-04
7.340951469814172e-06,1.0,0.47174012660980225,0.940666675567627,1e-04
8.003024049685337e-06,1.0,0.4722375273704529,0.940666675567627,1e-04
8.03500006441027e-06,1.0,0.47332149744033813,0.9404444694519043,1e-04
9.006502295960672e-06,1.0,0.4731593430042267,0.9404444694519043,1e-04
6.626238700846443e-06,1.0,0.47296738624572754,0.9402222037315369,1e-04
9.952656910172664e-06,1.0,0.47243526577949524,0.9404444694519043,1e-04
1.0192122317675967e-05,1.0,0.4720618426799774,0.9404444694519043,1e-04
8.418541256105527e-06,1.0,0.4717409908771515,0.940666675567627,1e-04
8.236214853241108e-06,1.0,0.4711589515209198,0.940666675567627,1e-04
7.4220292844984215e-06,1.0,0.4713056683540344,0.9408888816833496,1e-04
6.975397809583228e-06,1.0,0.47154074907302856,0.9411110877990723,1e-04
7.972009370860178e-06,1.0,0.471802294254303,0.9411110877990723,1e-04
7.178626674431143e-06,1.0,0.47228336334228516,0.9411110877990723,1e-04
4.2557371671136934e-06,1.0,0.47269076108932495,0.9411110877990723,1e-04
1.5581081242999062e-05,1.0,0.47325921058654785,0.9413333535194397,1e-04
3.927666966774268e-06,1.0,0.4743673503398895,0.941777765750885,1e-04
1.2035347026539966e-05,1.0,0.474912166595459,0.9415555596351624,1e-04
7.956504305184353e-06,1.0,0.4754314720630646,0.941777765750885,1e-04
6.158975338621531e-06,1.0,0.47564247250556946,0.941777765750885,1e-04
7.069807452353416e-06,1.0,0.4753029942512512,0.9415555596351624,1e-04
1.044438158714911e-05,1.0,0.4741021692752838,0.9408888816833496,1e-04
6.224163371371105e-06,1.0,0.4733833968639374,0.9408888816833496,1e-04
9.838156984187663e-06,1.0,0.4724500775337219,0.9404444694519043,1e-04
1.694035017862916e-05,1.0,0.47197937965393066,0.940666675567627,1e-04
1.0006718184740748e-05,1.0,0.47190722823143005,0.9413333535194397,1e-04
5.039143616158981e-06,1.0,0.47217729687690735,0.9413333535194397,1e-04
6.803003998356871e-06,1.0,0.4725128710269928,0.9413333535194397,1e-04
5.351204890757799e-06,1.0,0.47271794080734253,0.9413333535194397,1e-04
5.5407390391337685e-06,1.0,0.47283637523651123,0.9411110877990723,1e-04
9.49855075305095e-06,1.0,0.4720795750617981,0.9413333535194397,1e-04
9.023709026223514e-06,1.0,0.4717259705066681,0.9408888816833496,1e-04
1.3449448488245253e-05,1.0,0.4721400737762451,0.9404444694519043,1e-04
1.1980528142885305e-05,1.0,0.4726783335208893,0.9399999976158142,1e-04
1.0889731129282154e-05,1.0,0.473140150308609,0.9395555257797241,1e-04
7.9045621532714e-06,1.0,0.472979336977005,0.9395555257797241,1e-04
6.999129254836589e-06,1.0,0.47302675247192383,0.9399999976158142,1e-04
6.425008905353025e-06,1.0,0.4732263386249542,0.9399999976158142,1e-04
7.089360224199481e-06,1.0,0.47350308299064636,0.9402222037315369,1e-04
2.570392462075688e-05,1.0,0.47307005524635315,0.9397777915000916,1e-04
1.2147138477303088e-05,1.0,0.4723968207836151,0.9402222037315369,1e-04
7.713381819485221e-06,1.0,0.47227680683135986,0.9402222037315369,1e-04
6.126551852503326e-06,1.0,0.47266682982444763,0.9404444694519043,1e-04
7.974665095389355e-06,1.0,0.47350606322288513,0.9404444694519043,1e-04
9.30536407395266e-06,1.0,0.47438791394233704,0.9402222037315369,1e-04
6.71323005008162e-06,1.0,0.4748806953430176,0.9402222037315369,1e-04
6.1782779994246084e-06,1.0,0.47527870535850525,0.9397777915000916,1e-04
7.498339073208626e-06,1.0,0.47571712732315063,0.9395555257797241,1e-04
6.259527253860142e-06,1.0,0.47631391882896423,0.9397777915000916,1e-04
5.8544956118566915e-06,1.0,0.4766503870487213,0.9402222037315369,1e-04
4.801466275239363e-06,1.0,0.4768804907798767,0.9402222037315369,1e-04
8.944010005507153e-06,1.0,0.47683393955230713,0.9399999976158142,1e-04
4.611912117979955e-06,1.0,0.4768955707550049,0.9397777915000916,1e-04
5.594789399765432e-06,1.0,0.47706592082977295,0.9395555257797241,1e-04
5.309709194989409e-06,1.0,0.47678613662719727,0.9397777915000916,1e-04
7.928397280920763e-06,1.0,0.47708722949028015,0.9399999976158142,1e-04
8.947601600084454e-06,1.0,0.47672009468078613,0.9402222037315369,1e-04
1.235948184330482e-05,1.0,0.47656840085983276,0.9404444694519043,1e-04
6.691107500955695e-06,1.0,0.47637560963630676,0.9404444694519043,1e-04
2.1024390662205406e-05,1.0,0.4744206666946411,0.9415555596351624,1e-04
4.52489121016697e-06,1.0,0.4735487699508667,0.941777765750885,1e-04
3.573001595214009e-05,1.0,0.4772189259529114,0.9426666498184204,1e-04
8.618974788987543e-06,1.0,0.4791519045829773,0.9428889155387878,1e-04
7.820320206519682e-06,1.0,0.4798603057861328,0.9424444437026978,1e-04
4.93687366542872e-06,1.0,0.48013368248939514,0.9422222375869751,1e-04
8.299452929350082e-06,1.0,0.48000097274780273,0.9419999718666077,1e-04
1.4955860024201684e-05,1.0,0.47925716638565063,0.9424444437026978,1e-04
5.480210347741377e-06,1.0,0.4777763783931732,0.9426666498184204,1e-04
5.100840098748449e-06,1.0,0.4765213131904602,0.9426666498184204,1e-04
1.0619042768666986e-05,1.0,0.47533246874809265,0.9422222375869751,1e-04
6.046147518645739e-06,1.0,0.47434645891189575,0.9413333535194397,1e-04
6.896075774420751e-06,1.0,0.47314003109931946,0.9415555596351624,1e-04
7.924079909571446e-06,1.0,0.4711769223213196,0.9411110877990723,1e-04
6.3271513681684155e-06,1.0,0.4701506197452545,0.9404444694519043,1e-04
7.465459475497482e-06,1.0,0.4705108106136322,0.9399999976158142,1e-04
3.46729780176247e-06,1.0,0.4711957573890686,0.9402222037315369,1e-04
4.354414613771951e-06,1.0,0.4718395173549652,0.9402222037315369,1e-04
4.68891448690556e-06,1.0,0.4730565845966339,0.9399999976158142,1e-04
1.0756574738479685e-05,1.0,0.47420328855514526,0.9399999976158142,1e-04
1.0577739885775372e-05,1.0,0.474914014339447,0.9393333196640015,1e-04
6.535653028549859e-06,1.0,0.47665923833847046,0.9388889074325562,1e-04
7.953851309139282e-06,1.0,0.47783106565475464,0.9388889074325562,1e-04
7.614951755385846e-06,1.0,0.47879448533058167,0.9388889074325562,1e-04
6.266696800594218e-06,1.0,0.47952571511268616,0.9393333196640015,1e-04
1.9437127775745466e-05,1.0,0.48053163290023804,0.9395555257797241,1e-04
6.975258656893857e-06,1.0,0.4814857244491577,0.9397777915000916,1e-04
4.721582627098542e-06,1.0,0.48233941197395325,0.9393333196640015,1e-04
5.408674951468129e-06,1.0,0.48272618651390076,0.9393333196640015,1e-04
5.854501523572253e-06,1.0,0.4829598665237427,0.9391111135482788,1e-04
8.960309969552327e-06,1.0,0.48337429761886597,0.9391111135482788,1e-04
5.771326868853066e-06,1.0,0.48337528109550476,0.9391111135482788,1e-04
4.354425527708372e-06,1.0,0.48325270414352417,0.9395555257797241,1e-04
5.842098289576825e-06,1.0,0.4834519922733307,0.9402222037315369,1e-04
1.1431279745011125e-05,1.0,0.4792648255825043,0.9384444355964661,1e-04
9.523507287667599e-06,1.0,0.47878530621528625,0.9375555515289307,1e-04
6.472908353316598e-06,1.0,0.4802496135234833,0.9377777576446533,1e-04
5.954625976301031e-06,1.0,0.4814302921295166,0.9380000233650208,1e-04
5.119009074405767e-06,1.0,0.4819318652153015,0.9384444355964661,1e-04
3.9311971704592e-06,1.0,0.4821992814540863,0.9384444355964661,1e-04
5.787319878436392e-06,1.0,0.48251086473464966,0.9386666417121887,1e-04
7.419659141305601e-06,1.0,0.4825688600540161,0.9388889074325562,1e-04
7.631756488990504e-06,1.0,0.4827931821346283,0.9388889074325562,1e-04
5.305688773660222e-06,1.0,0.4829202890396118,0.9388889074325562,1e-04
7.043101049930556e-06,1.0,0.4825786054134369,0.9393333196640015,1e-04
4.44380793851451e-06,1.0,0.48216813802719116,0.9393333196640015,1e-04
3.858025138470111e-06,1.0,0.48212185502052307,0.9397777915000916,1e-04
5.734515980293509e-06,1.0,0.48260796070098877,0.9399999976158142,1e-04
1.0395378012617584e-05,1.0,0.48253825306892395,0.9399999976158142,1e-04
4.097866622032598e-06,1.0,0.48251670598983765,0.9399999976158142,1e-04
3.79414677809109e-06,1.0,0.48248133063316345,0.9397777915000916,1e-04
6.427717835322255e-06,1.0,0.48249512910842896,0.9404444694519043,1e-04
4.870350039709592e-06,1.0,0.4829750955104828,0.9408888816833496,1e-04
9.511438292975072e-06,1.0,0.4833245575428009,0.9408888816833496,1e-04
1.0261255738441832e-05,1.0,0.48432737588882446,0.9408888816833496,1e-04
3.9946539800439496e-06,1.0,0.4849447011947632,0.9404444694519043,1e-04
3.5016273614019156e-06,1.0,0.48511794209480286,0.9404444694519043,1e-04
1.4052982805878855e-05,1.0,0.48323145508766174,0.9408888816833496,1e-04
3.695214218168985e-06,1.0,0.481997549533844,0.9395555257797241,1e-04
5.580328434007242e-06,1.0,0.48191526532173157,0.9395555257797241,1e-04
5.1888760026486125e-06,1.0,0.48216959834098816,0.9395555257797241,1e-04
7.78360936237732e-06,1.0,0.48245969414711,0.9395555257797241,1e-04
5.822528692078777e-06,1.0,0.4821076989173889,0.9397777915000916,1e-04
5.448843239719281e-06,1.0,0.4825346767902374,0.9402222037315369,1e-04
1.0402826774225105e-05,1.0,0.4830155074596405,0.9404444694519043,1e-04
1.8377382730250247e-05,1.0,0.48221078515052795,0.9404444694519043,1e-04
6.096688593970612e-06,1.0,0.48152127861976624,0.9404444694519043,1e-04
5.622937806037953e-06,1.0,0.4820694327354431,0.9411110877990723,1e-04
5.718113698094385e-06,1.0,0.48236945271492004,0.9415555596351624,1e-04
7.979680958669633e-06,1.0,0.4832184314727783,0.941777765750885,1e-04
1.6944497474469244e-05,1.0,0.4829001724720001,0.941777765750885,1e-04
4.854865437664557e-06,1.0,0.48332297801971436,0.9415555596351624,1e-04
6.356843641697196e-06,1.0,0.4834940731525421,0.941777765750885,1e-04
1.2465642612369265e-05,1.0,0.4830339550971985,0.9413333535194397,1e-04
4.282874215277843e-06,1.0,0.4827383756637573,0.9413333535194397,1e-04
4.895862275589025e-06,1.0,0.4832638204097748,0.9413333535194397,1e-04
5.591861281573074e-06,1.0,0.4838853180408478,0.9413333535194397,1e-04
1.529498513264116e-05,1.0,0.4849075376987457,0.9415555596351624,1e-04
4.255235580785666e-06,1.0,0.48568543791770935,0.9413333535194397,1e-04
4.438030373421498e-06,1.0,0.4861315190792084,0.9413333535194397,1e-04
1.0740481229731813e-05,1.0,0.48587170243263245,0.9408888816833496,1e-04
2.892708835133817e-06,1.0,0.48541179299354553,0.940666675567627,1e-04
8.227131729654502e-06,1.0,0.48511576652526855,0.9408888816833496,1e-04
1.0995033335348126e-05,1.0,0.4831106662750244,0.9402222037315369,1e-04
4.358444584795507e-06,1.0,0.48257601261138916,0.9399999976158142,1e-04
3.617007223510882e-06,1.0,0.4831686317920685,0.9397777915000916,1e-04
5.39653819942032e-06,1.0,0.4836117625236511,0.9402222037315369,1e-04
6.298694643191993e-06,1.0,0.4836552143096924,0.9402222037315369,1e-04
6.034228590579005e-06,1.0,0.4846116006374359,0.9399999976158142,1e-04
9.197688996209763e-06,1.0,0.4863502085208893,0.9399999976158142,1e-04
6.07476749792113e-06,1.0,0.4874313771724701,0.9404444694519043,1e-04
3.8019968542357674e-06,1.0,0.48755598068237305,0.940666675567627,1e-04
3.778148311539553e-06,1.0,0.48770514130592346,0.9411110877990723,1e-04
7.414048013743013e-06,1.0,0.48769357800483704,0.9413333535194397,1e-04
5.7031506912608165e-06,1.0,0.488102525472641,0.9413333535194397,1e-04
5.5983318816288374e-06,1.0,0.48816341161727905,0.9413333535194397,1e-04
5.014564976590918e-06,1.0,0.4879903495311737,0.9413333535194397,1e-04
6.141161520645255e-06,1.0,0.4876037836074829,0.9415555596351624,1e-04
6.525139269797364e-06,1.0,0.4871590733528137,0.941777765750885,1e-04
4.3384384298406076e-06,1.0,0.4872552752494812,0.941777765750885,1e-04
4.160348453297047e-06,1.0,0.4874742329120636,0.941777765750885,1e-04
3.988935077359201e-06,1.0,0.4877152740955353,0.9415555596351624,1e-04
3.076021130254958e-06,1.0,0.48818349838256836,0.941777765750885,1e-04
3.3673932193778455e-06,1.0,0.48847082257270813,0.941777765750885,1e-04
3.746687525563175e-06,1.0,0.48864760994911194,0.941777765750885,1e-04
4.79797108710045e-06,1.0,0.48860812187194824,0.9419999718666077,1e-04
4.870267730439082e-06,1.0,0.4882740378379822,0.9422222375869751,1e-04
3.5526211377145955e-06,1.0,0.4881633520126343,0.9422222375869751,1e-04
5.8001073739433195e-06,1.0,0.4876749813556671,0.9424444437026978,1e-04
3.163529072480742e-06,1.0,0.4876147508621216,0.9424444437026978,1e-04
1.0238758477498777e-05,1.0,0.48773860931396484,0.9422222375869751,1e-04
4.546788204606855e-06,1.0,0.48877549171447754,0.9422222375869751,1e-04
2.1555329112743493e-06,1.0,0.4887756109237671,0.9415555596351624,1e-04
4.256915872247191e-06,1.0,0.4890868663787842,0.9411110877990723,1e-04
3.098224397035665e-06,1.0,0.4892667233943939,0.9411110877990723,1e-04
2.9716140943492064e-06,1.0,0.48956742882728577,0.9411110877990723,1e-04
4.534840172709664e-06,1.0,0.4898211658000946,0.9413333535194397,1e-04
2.7508508537721355e-06,1.0,0.4900580644607544,0.9413333535194397,1e-04
2.8817391921620583e-06,1.0,0.4900467097759247,0.9415555596351624,1e-04
4.192871983832447e-06,1.0,0.49007704854011536,0.9415555596351624,1e-04
3.2143143471330404e-06,1.0,0.49010759592056274,0.941777765750885,1e-04
3.609377472457709e-06,1.0,0.49008405208587646,0.9415555596351624,1e-04
3.3540206914040027e-06,1.0,0.49018794298171997,0.9415555596351624,1e-04
9.925549420586322e-06,1.0,0.49072080850601196,0.9415555596351624,1e-04
5.485135261551477e-06,1.0,0.49086794257164,0.9411110877990723,1e-04
3.916894002031768e-06,1.0,0.49094635248184204,0.9411110877990723,1e-04
2.602319909783546e-06,1.0,0.4908774495124817,0.9411110877990723,1e-04
5.7927095440390985e-06,1.0,0.4897075593471527,0.941777765750885,1e-04
6.720660167047754e-06,1.0,0.4895685315132141,0.9415555596351624,1e-04
3.8530183701368514e-06,1.0,0.48981526494026184,0.9413333535194397,1e-04
3.2951477351161884e-06,1.0,0.49017345905303955,0.9415555596351624,1e-04
5.288683041726472e-06,1.0,0.4906266927719116,0.9415555596351624,1e-04
4.825143150810618e-06,1.0,0.48987630009651184,0.9419999718666077,1e-04
2.9916573112132028e-06,1.0,0.4895883798599243,0.9419999718666077,1e-04
4.646220531867584e-06,1.0,0.4901365041732788,0.9422222375869751,1e-04
2.78160177913378e-06,1.0,0.49144503474235535,0.9422222375869751,1e-04
8.670529496157542e-06,1.0,0.4917798340320587,0.9419999718666077,1e-04
2.523389184716507e-06,1.0,0.49217525124549866,0.941777765750885,1e-04
3.8022369608370354e-06,1.0,0.4920713007450104,0.941777765750885,1e-04
2.6776624508784153e-06,1.0,0.49230310320854187,0.9415555596351624,1e-04
2.1769835711893393e-06,1.0,0.49238336086273193,0.941777765750885,1e-04
2.7069841053162236e-06,1.0,0.4926486611366272,0.9413333535194397,1e-04
4.500494469539262e-06,1.0,0.4929443299770355,0.9419999718666077,1e-04
3.5804466733679874e-06,1.0,0.4928739070892334,0.9419999718666077,1e-04
2.560838538556709e-06,1.0,0.492413729429245,0.941777765750885,1e-04
2.479522891007946e-06,1.0,0.49214571714401245,0.9413333535194397,1e-04
3.5914360978495097e-06,1.0,0.4915830194950104,0.9411110877990723,1e-04
2.430177346468554e-06,1.0,0.49182626605033875,0.9411110877990723,1e-04
6.367319201672217e-06,1.0,0.49168553948402405,0.9408888816833496,1e-04
5.819997113576392e-06,1.0,0.49197372794151306,0.9408888816833496,1e-04
5.4617503337794915e-06,1.0,0.4920581579208374,0.9408888816833496,1e-04
2.6023164991784142e-06,1.0,0.4919165074825287,0.9413333535194397,1e-04
2.869807303795824e-06,1.0,0.49181297421455383,0.9413333535194397,1e-04
3.5399887110543204e-06,1.0,0.4918440878391266,0.9415555596351624,1e-04
4.341044586908538e-06,1.0,0.4924383759498596,0.9415555596351624,1e-04
3.599612227844773e-06,1.0,0.49331802129745483,0.9415555596351624,1e-04
3.4038666854030453e-06,1.0,0.4939475953578949,0.941777765750885,1e-04
4.844761406275211e-06,1.0,0.4931560754776001,0.9415555596351624,1e-04
3.674697154565365e-06,1.0,0.492816686630249,0.9411110877990723,1e-04
3.5461973766359733e-06,1.0,0.49400943517684937,0.9415555596351624,1e-04
3.363569703651592e-06,1.0,0.4945622384548187,0.9413333535194397,1e-04
3.42481712323206e-06,1.0,0.49475592374801636,0.9413333535194397,1e-04
3.4312856769247446e-06,1.0,0.4951070547103882,0.9413333535194397,1e-04
2.6564448489807546e-06,1.0,0.49534842371940613,0.9413333535194397,1e-04
3.889924755640095e-06,1.0,0.4949972927570343,0.9415555596351624,1e-04
3.579305484890938e-06,1.0,0.49485328793525696,0.9415555596351624,1e-04
2.7138805762660922e-06,1.0,0.4948273003101349,0.9415555596351624,1e-04
3.7771840197819984e-06,1.0,0.49502500891685486,0.9415555596351624,1e-04
2.2249025732890004e-06,1.0,0.49446597695350647,0.941777765750885,1e-04
1.811734705370327e-06,1.0,0.4942939579486847,0.9415555596351624,1e-04
1.7826487237471156e-06,1.0,0.49442753195762634,0.941777765750885,1e-04
4.372478542791214e-06,1.0,0.4940425455570221,0.941777765750885,1e-04
3.2333787203242537e-06,1.0,0.494143009185791,0.9415555596351624,1e-04
7.582865237054648e-06,1.0,0.4944682717323303,0.9413333535194397,1e-04
2.581323315098416e-06,1.0,0.493492990732193,0.9415555596351624,1e-04
2.889608822442824e-06,1.0,0.4930940866470337,0.9415555596351624,1e-04
3.774116748900269e-06,1.0,0.4934225380420685,0.9415555596351624,1e-04
4.893441200692905e-06,1.0,0.49333035945892334,0.9419999718666077,1e-04
1.341814459010493e-05,1.0,0.49348703026771545,0.9422222375869751,1e-04
3.082710009039147e-06,1.0,0.49498414993286133,0.9426666498184204,1e-04
3.2288567126670387e-06,1.0,0.49566537141799927,0.9428889155387878,1e-04
2.352453748244443e-06,1.0,0.4958369731903076,0.9428889155387878,1e-04
1.041348969010869e-05,1.0,0.4930594563484192,0.9422222375869751,1e-04
6.472471341112396e-06,1.0,0.48971104621887207,0.9411110877990723,1e-04
3.6339106372906826e-06,1.0,0.48994341492652893,0.9404444694519043,1e-04
3.0274145501607563e-06,1.0,0.490780770778656,0.9408888816833496,1e-04
2.688626864255639e-06,1.0,0.4915611445903778,0.9408888816833496,1e-04
6.172210760269081e-06,1.0,0.49200552701950073,0.9408888816833496,1e-04
3.0777234769630013e-06,1.0,0.49282291531562805,0.9411110877990723,1e-04
2.251848627565778e-06,1.0,0.49364855885505676,0.9413333535194397,1e-04
4.32026445196243e-06,1.0,0.49356406927108765,0.9411110877990723,1e-04
5.702781891159248e-06,1.0,0.49447596073150635,0.9411110877990723,1e-04
3.968612418248085e-06,1.0,0.49420231580734253,0.9415555596351624,1e-04
3.3954772789002163e-06,1.0,0.49404388666152954,0.9415555596351624,1e-04
2.0980642148060724e-06,1.0,0.4941234886646271,0.941777765750885,1e-04
4.32864135291311e-06,1.0,0.49429383873939514,0.9413333535194397,1e-04
2.724140358623117e-06,1.0,0.4943063259124756,0.9413333535194397,1e-04
2.453315801176359e-06,1.0,0.49433034658432007,0.9413333535194397,1e-04
1.0141800885321572e-05,1.0,0.4944027364253998,0.9413333535194397,1e-04
2.7589544515649322e-06,1.0,0.4952218532562256,0.9408888816833496,1e-04
5.766747563029639e-06,1.0,0.4950735569000244,0.9399999976158142,1e-04
2.854568492693943e-06,1.0,0.49562472105026245,0.9399999976158142,1e-04
7.021640612947522e-06,1.0,0.4973800480365753,0.9395555257797241,1e-04
4.4973699004913215e-06,1.0,0.4988168478012085,0.9388889074325562,1e-04
2.596585318315192e-06,1.0,0.49958744645118713,0.9388889074325562,1e-04
1.6348305962310405e-06,1.0,0.5002469420433044,0.9391111135482788,1e-04
2.2833141883893404e-06,1.0,0.5002371668815613,0.9399999976158142,1e-04
6.391700026142644e-06,1.0,0.49927300214767456,0.9395555257797241,1e-04
2.0477573343669064e-06,1.0,0.4992230236530304,0.9399999976158142,1e-04
1.7304348602920072e-06,1.0,0.49960100650787354,0.9399999976158142,1e-04
2.035372062891838e-06,1.0,0.5000824332237244,0.9402222037315369,1e-04
4.9479640438221395e-06,1.0,0.5000900030136108,0.9399999976158142,1e-04
5.201005023991456e-06,1.0,0.49752095341682434,0.9391111135482788,1e-04
4.998576969228452e-06,1.0,0.4974510669708252,0.9391111135482788,1e-04
3.1993090487958398e-06,1.0,0.49836257100105286,0.9391111135482788,1e-04
7.5372499850345775e-06,1.0,0.4997630715370178,0.9391111135482788,1e-04
4.166717644693563e-06,1.0,0.5010666847229004,0.9391111135482788,1e-04
3.8101047721283976e-06,1.0,0.5018770694732666,0.9393333196640015,1e-04
5.153029178472934e-06,1.0,0.5007937550544739,0.9395555257797241,1e-04
2.334103555767797e-06,1.0,0.49975645542144775,0.9397777915000916,1e-04
5.60172929908731e-06,1.0,0.5000949501991272,0.9399999976158142,1e-04
2.5055128389794845e-06,1.0,0.500992476940155,0.9397777915000916,1e-04
4.049435574415838e-06,1.0,0.5016842484474182,0.9393333196640015,1e-04
2.425402499284246e-06,1.0,0.5019574165344238,0.9388889074325562,1e-04
2.497648893040605e-06,1.0,0.5024095177650452,0.9388889074325562,1e-04
4.54937116955989e-06,1.0,0.5028194189071655,0.9388889074325562,1e-04
2.6924258236249443e-06,1.0,0.5037669539451599,0.9395555257797241,1e-04
3.368723128005513e-06,1.0,0.5029456615447998,0.9404444694519043,1e-04
2.716272092584404e-06,1.0,0.5036123991012573,0.9402222037315369,1e-04
2.9749844543403015e-05,1.0,0.49238303303718567,0.9413333535194397,1e-04
5.440620498120552e-06,1.0,0.4798077344894409,0.9402222037315369,1e-04
3.8863422560098115e-06,1.0,0.4759308695793152,0.9393333196640015,1e-04
4.025164344056975e-06,1.0,0.47650146484375,0.9391111135482788,1e-04
5.093487288831966e-06,1.0,0.4788760244846344,0.9393333196640015,1e-04
2.8481158551585395e-06,1.0,0.48191216588020325,0.9393333196640015,1e-04
3.366683586136787e-06,1.0,0.4847729504108429,0.9395555257797241,1e-04
1.6379264707211405e-05,1.0,0.4823035001754761,0.9384444355964661,1e-04
4.6822274271107744e-06,1.0,0.4851880371570587,0.9397777915000916,1e-04
4.379420261102496e-06,1.0,0.48775508999824524,0.9404444694519043,1e-04
3.208123416698072e-06,1.0,0.49061301350593567,0.9408888816833496,1e-04
2.657635604919051e-06,1.0,0.4922542870044708,0.941777765750885,1e-04
3.117541609753971e-06,1.0,0.4934365153312683,0.9419999718666077,1e-04
2.3951331513671903e-06,1.0,0.4944654405117035,0.9419999718666077,1e-04
2.9303703286132077e-06,1.0,0.495420902967453,0.941777765750885,1e-04
6.022127308824565e-06,1.0,0.4944508969783783,0.9415555596351624,1e-04
2.805925305437995e-06,1.0,0.4949970841407776,0.9408888816833496,1e-04
2.2644787804892985e-06,1.0,0.4956223964691162,0.940666675567627,1e-04
3.865892722387798e-06,1.0,0.49648264050483704,0.9404444694519043,1e-04
2.9897371405240847e-06,1.0,0.49685975909233093,0.9399999976158142,1e-04
3.109176304860739e-06,1.0,0.49778565764427185,0.9397777915000916,1e-04
1.5039397567306878e-06,1.0,0.49878010153770447,0.9399999976158142,1e-04
4.5265082917467225e-06,1.0,0.49960649013519287,0.9404444694519043,1e-04
3.891166215908015e-06,1.0,0.5005060434341431,0.9413333535194397,1e-04
3.0075675567786675e-06,1.0,0.5013004541397095,0.9413333535194397,1e-04
4.90892080051708e-06,1.0,0.5013725161552429,0.9408888816833496,1e-04
3.816803200606955e-06,1.0,0.5015612244606018,0.9402222037315369,1e-04
2.0048539681738475e-06,1.0,0.5021162629127502,0.9402222037315369,1e-04
5.900350515730679e-06,1.0,0.5025166273117065,0.9402222037315369,1e-04
3.0324094950628933e-06,1.0,0.5032932162284851,0.9397777915000916,1e-04
3.2789214401418576e-06,1.0,0.5035405158996582,0.9397777915000916,1e-04
1.752608454808069e-06,1.0,0.5036285519599915,0.9399999976158142,1e-04
4.158577667112695e-06,1.0,0.5028529167175293,0.9404444694519043,1e-04
1.649847376938851e-06,1.0,0.501820981502533,0.9404444694519043,1e-04
2.5520116651023272e-06,1.0,0.5016747713088989,0.9404444694519043,1e-04
2.2754516066925135e-06,1.0,0.5019764304161072,0.9404444694519043,1e-04
1.6417445749539183e-06,1.0,0.5023139119148254,0.9404444694519043,1e-04
2.6542793420958333e-06,1.0,0.5029361844062805,0.9404444694519043,1e-04
1.9166325273545226e-06,1.0,0.5034175515174866,0.9404444694519043,1e-04
4.245162017468829e-06,1.0,0.5039830207824707,0.940666675567627,1e-04
2.030841187661281e-06,1.0,0.5073332190513611,0.9397777915000916,1e-04
2.756087724264944e-06,1.0,0.5084583759307861,0.9397777915000916,1e-04
2.5484325760771753e-06,1.0,0.507729709148407,0.9399999976158142,1e-04
2.6421262191433925e-06,1.0,0.5069636702537537,0.940666675567627,1e-04
2.439195668557659e-06,1.0,0.5062541365623474,0.9408888816833496,1e-04
2.2966530650592176e-06,1.0,0.5048388838768005,0.9408888816833496,1e-04
1.319404759669851e-06,1.0,0.504289984703064,0.9411110877990723,1e-04
2.0029426650580717e-06,1.0,0.5040874481201172,0.9413333535194397,1e-04
2.5476797418377828e-06,1.0,0.5033339262008667,0.9415555596351624,1e-04
2.4268408651551e-06,1.0,0.50226891040802,0.9415555596351624,1e-04
1.329417500528507e-06,1.0,0.5016065835952759,0.9415555596351624,1e-04
2.8654524157900596e-06,1.0,0.5020029544830322,0.9415555596351624,1e-04
1.9142548808304127e-06,1.0,0.5022767782211304,0.941777765750885,1e-04
2.766116722341394e-06,1.0,0.5026413798332214,0.941777765750885,1e-04
1.5411320646308013e-06,1.0,0.5028647184371948,0.941777765750885,1e-04
3.309640078441589e-06,1.0,0.5024734139442444,0.941777765750885,1e-04
9.153466635325458e-06,1.0,0.5045186281204224,0.9426666498184204,1e-04
2.2122655991552165e-06,1.0,0.5052838325500488,0.9426666498184204,1e-04
1.3282254940349958e-06,1.0,0.5058029294013977,0.9428889155387878,1e-04
1.5334990166593343e-06,1.0,0.5059130787849426,0.9428889155387878,1e-04
1.7986212696996517e-06,1.0,0.5058706402778625,0.9426666498184204,1e-04
1.284356244468654e-06,1.0,0.505901038646698,0.9426666498184204,1e-04
4.617134436557535e-06,1.0,0.5060874819755554,0.9424444437026978,1e-04
2.2518249807035318e-06,1.0,0.5054006576538086,0.9424444437026978,1e-04
1.9104256807622733e-06,1.0,0.5040796995162964,0.9424444437026978,1e-04
1.1465525631138007e-06,1.0,0.5037822723388672,0.9422222375869751,1e-04
2.8957851100130938e-05,1.0,0.510001540184021,0.9273333549499512,1e-04
3.558719254215248e-05,1.0,0.488870769739151,0.9422222375869751,1e-04
1.1007226021320093e-05,1.0,0.5004483461380005,0.9388889074325562,1e-04
7.159575034165755e-06,1.0,0.5085445046424866,0.9362221956253052,1e-04
9.578126991982572e-06,1.0,0.5115963816642761,0.9346666932106018,1e-04
0.00034102960489690304,1.0,0.5058584809303284,0.9226666688919067,1e-04
0.05161411687731743,0.9919999837875366,4.066977500915527,0.6764444708824158,1e-04
0.02341184951364994,0.9860000014305115,11.581707954406738,0.6195555329322815,1e-04
0.006709810812026262,0.9980000257492065,7.982043266296387,0.5855555534362793,1e-04
0.00843043439090252,0.9980000257492065,2.306758403778076,0.6975555419921875,1e-04
0.004893307574093342,0.9980000257492065,1.2697432041168213,0.7804444432258606,1e-04
0.002146280137822032,1.0,0.6408752799034119,0.8931111097335815,1e-04
0.001192937488667667,1.0,0.5452196598052979,0.9155555367469788,1e-04
0.000497793429531157,1.0,0.5130382180213928,0.9171110987663269,1e-04
0.0005150902434252203,1.0,0.49089768528938293,0.9193333387374878,1e-04
0.00041008664993569255,1.0,0.4733833074569702,0.9268888831138611,1e-04
0.00025073339929804206,1.0,0.4632778763771057,0.9306666851043701,1e-04
0.0001762745378073305,1.0,0.45673274993896484,0.9331111311912537,1e-04
0.00022029835963621736,1.0,0.4511811137199402,0.9351111054420471,1e-04
0.0003445414768066257,1.0,0.44867634773254395,0.9368888735771179,1e-04
0.00022233578783925623,1.0,0.44519901275634766,0.9371111392974854,1e-04
0.00026495475322008133,1.0,0.4401862919330597,0.9353333115577698,1e-04
0.00022875226568430662,1.0,0.43595704436302185,0.9366666674613953,1e-04
0.00015725544653832912,1.0,0.43309837579727173,0.9375555515289307,1e-04
0.00021200120681896806,1.0,0.4324994683265686,0.9382222294807434,1e-04
0.00022696662927046418,1.0,0.43133845925331116,0.9384444355964661,1e-04
0.00015350266767200083,1.0,0.42904841899871826,0.9388889074325562,1e-04
0.00013769934594165534,1.0,0.42682746052742004,0.9402222037315369,1e-04
9.519929881207645e-05,1.0,0.4263666272163391,0.9404444694519043,1e-04
0.0002608348149806261,1.0,0.42701736092567444,0.9404444694519043,1e-04
7.705571624683216e-05,1.0,0.4259733259677887,0.940666675567627,1e-04
7.967861165525392e-05,1.0,0.4253654181957245,0.9404444694519043,1e-04
9.666901314631104e-05,1.0,0.42558151483535767,0.9408888816833496,1e-04
0.00013029537512920797,1.0,0.42580944299697876,0.940666675567627,1e-04
9.035760740516707e-05,1.0,0.42455101013183594,0.9399999976158142,1e-04
0.00010241166455671191,1.0,0.4245951175689697,0.9402222037315369,1e-04
8.627805073047057e-05,1.0,0.4246613383293152,0.9399999976158142,1e-04
0.00011347899999236688,1.0,0.4245632290840149,0.9393333196640015,1e-04
0.00010138429934158921,1.0,0.42458999156951904,0.9388889074325562,1e-04
0.00010856022709049284,1.0,0.42529958486557007,0.9393333196640015,1e-04
0.00018766829452943057,1.0,0.4245835542678833,0.9399999976158142,1e-04
9.166407835436985e-05,1.0,0.4248836636543274,0.9419999718666077,1e-04
0.00011013566108886153,1.0,0.42522895336151123,0.9419999718666077,1e-04
0.0002013371849898249,1.0,0.42361101508140564,0.9415555596351624,1e-04
7.024544902378693e-05,1.0,0.4198220670223236,0.9395555257797241,1e-04
7.379413727903739e-05,1.0,0.419494092464447,0.9391111135482788,1e-04
0.00012074202095391229,1.0,0.42048922181129456,0.9395555257797241,1e-04
0.0001282134180655703,1.0,0.42215830087661743,0.9388889074325562,1e-04
0.0002382894599577412,1.0,0.42590001225471497,0.9397777915000916,1e-04
8.597791020292789e-05,1.0,0.42966169118881226,0.9415555596351624,1e-04
4.955800250172615e-05,1.0,0.4314495027065277,0.941777765750885,1e-04
4.734355752589181e-05,1.0,0.43243151903152466,0.9415555596351624,1e-04
4.9414680688641965e-05,1.0,0.43320006132125854,0.9415555596351624,1e-04
5.249070090940222e-05,1.0,0.4339210093021393,0.9415555596351624,1e-04
5.688378951163031e-05,1.0,0.43440693616867065,0.940666675567627,1e-04
7.734569226158783e-05,1.0,0.43409350514411926,0.940666675567627,1e-04
6.0799931816291064e-05,1.0,0.43398261070251465,0.9397777915000916,1e-04
4.2456256778677925e-05,1.0,0.4341239333152771,0.9397777915000916,1e-04
4.4871372665511444e-05,1.0,0.43424591422080994,0.9397777915000916,1e-04
4.959621946909465e-05,1.0,0.4345131814479828,0.9395555257797241,1e-04
8.884401904651895e-05,1.0,0.4349950850009918,0.9395555257797241,1e-04
0.00013404700439423323,1.0,0.43443411588668823,0.9395555257797241,1e-04
4.169207386439666e-05,1.0,0.43424153327941895,0.9391111135482788,1e-04
8.863009861670434e-05,1.0,0.4343801736831665,0.9393333196640015,1e-04
4.9498743464937434e-05,1.0,0.4348541796207428,0.9391111135482788,1e-04
6.568369281012565e-05,1.0,0.4353576600551605,0.9391111135482788,1e-04
3.710520104505122e-05,1.0,0.43584853410720825,0.9391111135482788,1e-04
6.73531394568272e-05,1.0,0.43671485781669617,0.9391111135482788,1e-04
8.366240217583254e-05,1.0,0.43700656294822693,0.9391111135482788,1e-04
7.217474922072142e-05,1.0,0.4373161494731903,0.9391111135482788,1e-04
5.969252742943354e-05,1.0,0.4377363324165344,0.9391111135482788,1e-04
4.677399920183234e-05,1.0,0.43839237093925476,0.9391111135482788,1e-04
4.6170931454980746e-05,1.0,0.4388796389102936,0.9391111135482788,1e-04
4.913359953206964e-05,1.0,0.43958938121795654,0.9391111135482788,1e-04
8.654663542984053e-05,1.0,0.440243124961853,0.9393333196640015,1e-04
7.393781561404467e-05,1.0,0.44092148542404175,0.9399999976158142,1e-04
3.9212351111928e-05,1.0,0.4414770305156708,0.9399999976158142,1e-04
5.76225902477745e-05,1.0,0.44124114513397217,0.9395555257797241,1e-04
0.0001292986999033019,1.0,0.43872958421707153,0.9393333196640015,1e-04
2.7272168154013343e-05,1.0,0.4380541145801544,0.9386666417121887,1e-04
5.411693564383313e-05,1.0,0.4382157325744629,0.9386666417121887,1e-04
3.720283348229714e-05,1.0,0.4386998414993286,0.9386666417121887,1e-04
2.72330562438583e-05,1.0,0.43935027718544006,0.9391111135482788,1e-04
3.054796616197564e-05,1.0,0.43995341658592224,0.9393333196640015,1e-04
6.845867756055668e-05,1.0,0.44075194001197815,0.9391111135482788,1e-04
2.6950387109536678e-05,1.0,0.4414863586425781,0.9391111135482788,1e-04
4.3890417146030813e-05,1.0,0.44204074144363403,0.9391111135482788,1e-04
3.954732164856978e-05,1.0,0.4425045847892761,0.9391111135482788,1e-04
5.500332190422341e-05,1.0,0.44306808710098267,0.9393333196640015,1e-04
3.3596414141356945e-05,1.0,0.4437529742717743,0.9393333196640015,1e-04
3.602459764806554e-05,1.0,0.4443666338920593,0.9393333196640015,1e-04
4.383743726066314e-05,1.0,0.44491466879844666,0.9393333196640015,1e-04
3.3306616387562826e-05,1.0,0.4452725648880005,0.9393333196640015,1e-04
3.553590067895129e-05,1.0,0.4455353319644928,0.9393333196640015,1e-04
3.738497252925299e-05,1.0,0.4458577632904053,0.9393333196640015,1e-04
3.194056625943631e-05,1.0,0.44618937373161316,0.9393333196640015,1e-04
5.155445614946075e-05,1.0,0.4458657503128052,0.9391111135482788,1e-04
9.055472764885053e-05,1.0,0.44474953413009644,0.9384444355964661,1e-04
3.4990855056094006e-05,1.0,0.4442930817604065,0.937333345413208,1e-04
5.2190393034834415e-05,1.0,0.44466033577919006,0.9371111392974854,1e-04
3.0943028832552955e-05,1.0,0.4457533061504364,0.937333345413208,1e-04
4.705009632743895e-05,1.0,0.4465479254722595,0.9380000233650208,1e-04
2.9263852411531843e-05,1.0,0.44713547825813293,0.9380000233650208,1e-04
3.8475616747746244e-05,1.0,0.4477865397930145,0.9380000233650208,1e-04
0.0002762804797384888,1.0,0.4473564624786377,0.9395555257797241,1e-04
2.821478119585663e-05,1.0,0.44759833812713623,0.9402222037315369,1e-04
2.7798603696282953e-05,1.0,0.448013037443161,0.9404444694519043,1e-04
1.7517450032755733e-05,1.0,0.4483957290649414,0.940666675567627,1e-04
4.8736415919847786e-05,1.0,0.44824111461639404,0.9402222037315369,1e-04
2.5025445211213082e-05,1.0,0.44823765754699707,0.9399999976158142,1e-04
2.5082450520130806e-05,1.0,0.44851580262184143,0.9399999976158142,1e-04
3.7819307181052864e-05,1.0,0.44857844710350037,0.9399999976158142,1e-04
2.714951006055344e-05,1.0,0.44850531220436096,0.9397777915000916,1e-04
4.459377669263631e-05,1.0,0.4485500752925873,0.9397777915000916,1e-04
3.713776095537469e-05,1.0,0.4485543668270111,0.9397777915000916,1e-04
8.046982111409307e-05,1.0,0.4475381672382355,0.9391111135482788,1e-04
2.626452624099329e-05,1.0,0.44761958718299866,0.9386666417121887,1e-04
7.316598203033209e-05,1.0,0.4480869770050049,0.9386666417121887,1e-04
2.209157173638232e-05,1.0,0.44841235876083374,0.9397777915000916,1e-04
1.980792876565829e-05,1.0,0.4489067792892456,0.9397777915000916,1e-04
7.515891047660261e-05,1.0,0.4495890438556671,0.9397777915000916,1e-04
3.8321530155371875e-05,1.0,0.45012950897216797,0.9397777915000916,1e-04
2.064591899397783e-05,1.0,0.4505600333213806,0.9395555257797241,1e-04
3.398871194804087e-05,1.0,0.4509035646915436,0.9395555257797241,1e-04
4.4317734136711806e-05,1.0,0.45141029357910156,0.9395555257797241,1e-04
2.2940967028262094e-05,1.0,0.45166635513305664,0.9395555257797241,1e-04
3.17888698191382e-05,1.0,0.45206961035728455,0.9395555257797241,1e-04
7.228098547784612e-05,1.0,0.4524277150630951,0.9395555257797241,1e-04
2.0479426893871278e-05,1.0,0.452771931886673,0.9395555257797241,1e-04
2.7490739739732817e-05,1.0,0.45302435755729675,0.9395555257797241,1e-04
3.22483028867282e-05,1.0,0.45305538177490234,0.9395555257797241,1e-04
4.269819692126475e-05,1.0,0.4533839523792267,0.9393333196640015,1e-04
3.878608549712226e-05,1.0,0.4536597728729248,0.9391111135482788,1e-04
4.429257751326077e-05,1.0,0.4541841745376587,0.9391111135482788,1e-04
1.6283449440379627e-05,1.0,0.45443934202194214,0.9391111135482788,1e-04
2.7682446670951322e-05,1.0,0.45479753613471985,0.9391111135482788,1e-04
2.0551988200168125e-05,1.0,0.4550931453704834,0.9391111135482788,1e-04
2.48224132519681e-05,1.0,0.45512163639068604,0.9388889074325562,1e-04
2.7718633646145463e-05,1.0,0.45536524057388306,0.9391111135482788,1e-04
1.9617888028733432e-05,1.0,0.45552369952201843,0.9391111135482788,1e-04
1.8938704670290463e-05,1.0,0.4557662308216095,0.9393333196640015,1e-04
1.8658911358215846e-05,1.0,0.4563090205192566,0.9393333196640015,1e-04
2.6831883587874472e-05,1.0,0.45681092143058777,0.9393333196640015,1e-04
1.70421481016092e-05,1.0,0.45728281140327454,0.9395555257797241,1e-04
1.2067480383848306e-05,1.0,0.4575244188308716,0.9395555257797241,1e-04
2.1578896848950535e-05,1.0,0.4577748477458954,0.9395555257797241,1e-04
1.6265505109913647e-05,1.0,0.4581250548362732,0.9397777915000916,1e-04
1.7458607544540428e-05,1.0,0.4582979679107666,0.9397777915000916,1e-04
1.3076935829303693e-05,1.0,0.45841026306152344,0.9397777915000916,1e-04
2.7488536943565123e-05,1.0,0.45834606885910034,0.9393333196640015,1e-04
1.928625897562597e-05,1.0,0.45822814106941223,0.9391111135482788,1e-04
2.1310474039637484e-05,1.0,0.4582807719707489,0.9391111135482788,1e-04
1.840348522819113e-05,1.0,0.45843636989593506,0.9393333196640015,1e-04
1.6553722161916085e-05,1.0,0.4585079848766327,0.9395555257797241,1e-04
1.565918864798732e-05,1.0,0.4586936831474304,0.9395555257797241,1e-04
2.1688267224817537e-05,1.0,0.45890510082244873,0.9395555257797241,1e-04
1.5455159882549196e-05,1.0,0.45880502462387085,0.9395555257797241,1e-04
6.426096661016345e-05,1.0,0.4587530493736267,0.9395555257797241,1e-04
1.4064142305869609e-05,1.0,0.45824673771858215,0.9393333196640015,1e-04
1.866264210548252e-05,1.0,0.4581741392612457,0.9393333196640015,1e-04
1.9298147890367545e-05,1.0,0.4583072364330292,0.9393333196640015,1e-04
2.2610294763580896e-05,1.0,0.45843029022216797,0.9393333196640015,1e-04
1.536506533739157e-05,1.0,0.45855507254600525,0.9393333196640015,1e-04
2.2707054085913114e-05,1.0,0.4588318169116974,0.9393333196640015,1e-04
2.7115460397908464e-05,1.0,0.45907682180404663,0.9393333196640015,1e-04
2.574600512161851e-05,1.0,0.45965445041656494,0.9393333196640015,1e-04
2.2052745407563634e-05,1.0,0.4601808190345764,0.9393333196640015,1e-04
1.1501368135213852e-05,1.0,0.4606313407421112,0.9393333196640015,1e-04
1.868266917881556e-05,1.0,0.4609554708003998,0.9393333196640015,1e-04
2.0334275177447125e-05,1.0,0.46146711707115173,0.9397777915000916,1e-04
2.8015800126013346e-05,1.0,0.46172982454299927,0.9397777915000916,1e-04
1.3857280464435462e-05,1.0,0.4621005952358246,0.9397777915000916,1e-04
1.1081569027737714e-05,1.0,0.4622657299041748,0.9397777915000916,1e-04
1.982089816010557e-05,1.0,0.46251562237739563,0.9397777915000916,1e-04
2.3418868295266293e-05,1.0,0.46223339438438416,0.9397777915000916,1e-04
1.3747491721005645e-05,1.0,0.46207112073898315,0.9395555257797241,1e-04
1.6130352378240786e-05,1.0,0.46230489015579224,0.9395555257797241,1e-04
3.486051718937233e-05,1.0,0.4626249372959137,0.9395555257797241,1e-04
1.7938353266799822e-05,1.0,0.46294644474983215,0.9395555257797241,1e-04
1.7681230019661598e-05,1.0,0.46315836906433105,0.9393333196640015,1e-04
3.390241909073666e-05,1.0,0.4633546471595764,0.9393333196640015,1e-04
2.6827554393094033e-05,1.0,0.4635219871997833,0.9395555257797241,1e-04
1.5889558198978193e-05,1.0,0.4635423719882965,0.9395555257797241,1e-04
1.634752334211953e-05,1.0,0.46358633041381836,0.9395555257797241,1e-04
2.251322439406067e-05,1.0,0.46389779448509216,0.9395555257797241,1e-04
1.7041882529156283e-05,1.0,0.4641180634498596,0.9395555257797241,1e-04
1.346707358607091e-05,1.0,0.46433231234550476,0.9395555257797241,1e-04
4.450704000191763e-05,1.0,0.4646822512149811,0.9395555257797241,1e-04
1.2701313607976772e-05,1.0,0.4651356339454651,0.9395555257797241,1e-04
1.647039971430786e-05,1.0,0.4654995799064636,0.9397777915000916,1e-04
2.4026141545618884e-05,1.0,0.46534010767936707,0.9395555257797241,1e-04
2.7536856578080915e-05,1.0,0.4651454985141754,0.9395555257797241,1e-04
1.8045964679913595e-05,1.0,0.4651143252849579,0.9393333196640015,1e-04
