loss,accuracy,val_loss,val_accuracy,lr
0.5136885046958923,0.8700000047683716,1.2408580780029297,0.35377776622772217,0.001
0.24742262065410614,0.9319999814033508,1.0259428024291992,0.45044443011283875,0.001
0.19702807068824768,0.9359999895095825,0.49470430612564087,0.9244444370269775,0.001
0.1716621071100235,0.949999988079071,0.37996017932891846,0.9306666851043701,0.001
0.16120997071266174,0.9539999961853027,0.3456755578517914,0.9328888654708862,0.001
0.12925665080547333,0.9559999704360962,0.4100872576236725,0.9344444274902344,0.001
0.11130863428115845,0.9700000286102295,0.45939117670059204,0.9380000233650208,0.001
0.09798473864793777,0.9760000109672546,0.5952170491218567,0.9217777848243713,0.001
0.07545571774244308,0.9800000190734863,0.5565134286880493,0.9240000247955322,0.001
0.0908503606915474,0.972000002861023,0.6678686141967773,0.8731111288070679,0.001
0.11193760484457016,0.9660000205039978,0.5813302993774414,0.8306666612625122,0.001
0.08278734236955643,0.9779999852180481,0.6529909372329712,0.6980000138282776,0.001
0.07129580527544022,0.9800000190734863,0.6301934123039246,0.8726666569709778,0.001
0.06510660797357559,0.9819999933242798,0.6302809119224548,0.8140000104904175,0.001
0.060170482844114304,0.984000027179718,0.5496872067451477,0.8068888783454895,0.001
0.06711645424365997,0.9760000109672546,0.5564436912536621,0.8424444198608398,0.001
0.05647914856672287,0.9819999933242798,0.7297917008399963,0.8199999928474426,0.001
0.04556775465607643,0.9879999756813049,0.5700855851173401,0.8733333349227905,0.001
0.05651949346065521,0.984000027179718,0.37907499074935913,0.9293333292007446,0.001
0.04174317046999931,0.9819999933242798,0.6765748858451843,0.8571110963821411,0.001
0.04028840363025665,0.9900000095367432,0.6424523591995239,0.7968888878822327,0.001
0.05384763330221176,0.984000027179718,0.6974560618400574,0.8146666884422302,0.001
0.07941336929798126,0.9679999947547913,0.6791825294494629,0.7611111402511597,0.001
0.07791842520236969,0.9779999852180481,1.5486044883728027,0.4300000071525574,0.001
0.05277877673506737,0.9819999933242798,0.5621235966682434,0.8566666841506958,0.001
0.04751390591263771,0.984000027179718,0.48819661140441895,0.9053333401679993,0.001
0.05427601560950279,0.9860000014305115,0.32320737838745117,0.9355555772781372,0.001
0.04992916062474251,0.9860000014305115,0.2985197901725769,0.9342222213745117,0.001
0.055565133690834045,0.9860000014305115,0.5977339148521423,0.836222231388092,0.001
0.04105442389845848,0.9900000095367432,0.42558687925338745,0.9102222323417664,0.001
0.05340343713760376,0.9819999933242798,0.35273846983909607,0.9262222051620483,0.001
0.04225504398345947,0.9779999852180481,0.2416502833366394,0.9424444437026978,0.001
0.04511186480522156,0.984000027179718,0.28166407346725464,0.9344444274902344,0.001
0.03370588645339012,0.9900000095367432,0.49375954270362854,0.8651111125946045,0.001
0.026922933757305145,0.9900000095367432,0.4904249608516693,0.8722222447395325,0.001
0.020937994122505188,0.9919999837875366,0.40861400961875916,0.9177777767181396,0.001
0.02561897784471512,0.9900000095367432,0.46604394912719727,0.8980000019073486,0.001
0.01906285621225834,0.9980000257492065,0.45279785990715027,0.8513333201408386,0.001
0.03285568580031395,0.9860000014305115,0.4212745130062103,0.9131110906600952,0.001
0.05838282033801079,0.9879999756813049,0.34085625410079956,0.9193333387374878,0.001
0.0386061817407608,0.9819999933242798,0.26771703362464905,0.9433333277702332,0.001
0.06912947446107864,0.9800000190734863,0.30315038561820984,0.9160000085830688,0.001
0.03898587450385094,0.9879999756813049,0.3323797583580017,0.9344444274902344,0.001
0.025025133043527603,0.9919999837875366,0.33984142541885376,0.867555558681488,0.001
0.02040444314479828,0.9959999918937683,0.27541211247444153,0.9324444532394409,0.001
0.013679013587534428,0.9980000257492065,0.27005282044410706,0.9393333196640015,0.001
0.009920790791511536,1.0,0.33169278502464294,0.8875555396080017,0.001
0.009419099427759647,0.9980000257492065,0.2673990726470947,0.9388889074325562,0.001
0.011882390826940536,0.9940000176429749,0.3381965458393097,0.8831111192703247,0.001
0.0121157206594944,0.9959999918937683,0.2859615683555603,0.9266666769981384,0.001
0.008761687204241753,0.9980000257492065,0.277296781539917,0.9342222213745117,0.001
0.010818683542311192,0.9959999918937683,0.30136343836784363,0.9162222146987915,0.001
0.01797928474843502,0.9959999918937683,0.30035918951034546,0.9242222309112549,0.001
0.013725580647587776,0.9959999918937683,0.33718836307525635,0.9077777862548828,0.001
0.0094057722017169,0.9980000257492065,0.34245485067367554,0.9151111245155334,0.001
0.005124772898852825,1.0,0.2963007688522339,0.9319999814033508,0.001
0.01162695698440075,0.9959999918937683,0.42177510261535645,0.8759999871253967,0.001
0.029644189402461052,0.9919999837875366,0.4685768783092499,0.8624444603919983,0.001
0.028258545324206352,0.9879999756813049,0.3616524934768677,0.9184444546699524,0.001
0.015964653342962265,0.9940000176429749,0.47084343433380127,0.9342222213745117,0.001
0.03683692216873169,0.9919999837875366,0.6834475994110107,0.8155555725097656,0.001
0.03997913375496864,0.9879999756813049,0.9785228967666626,0.7486666440963745,0.001
0.03456630930304527,0.9860000014305115,1.5891481637954712,0.6908888816833496,0.001
0.03832654654979706,0.9800000190734863,0.45620137453079224,0.9073333144187927,0.001
0.014173178002238274,0.9980000257492065,0.47232693433761597,0.9457777738571167,0.001
0.008839479647576809,0.9980000257492065,0.43355268239974976,0.9435555338859558,0.001
0.01132464874535799,0.9959999918937683,0.45219820737838745,0.9419999718666077,0.001
0.010890110395848751,0.9959999918937683,0.6345827579498291,0.8273333311080933,0.001
0.01165544893592596,1.0,0.42424169182777405,0.9357777833938599,0.001
0.005054881796240807,1.0,0.401847243309021,0.9317777752876282,0.001
0.0028631393797695637,1.0,0.38243022561073303,0.9331111311912537,0.001
0.0035074478946626186,1.0,0.3707755506038666,0.9273333549499512,0.001
0.002306267386302352,1.0,0.36337053775787354,0.9248889088630676,0.001
0.0013272447977215052,1.0,0.354309618473053,0.9388889074325562,0.001
0.001098294509574771,1.0,0.3524562120437622,0.9364444613456726,0.001
0.0008223602781072259,1.0,0.3565051555633545,0.9308888912200928,0.001
0.0006434108945541084,1.0,0.3588814437389374,0.9300000071525574,0.001
0.0005846819840371609,1.0,0.35842588543891907,0.9340000152587891,0.001
0.0005065062432549894,1.0,0.360565721988678,0.9368888735771179,0.001
0.0006930716917850077,1.0,0.3651003837585449,0.9368888735771179,0.001
0.00044351964606903493,1.0,0.3652704358100891,0.9353333115577698,0.001
0.0005093117943033576,1.0,0.36598825454711914,0.9351111054420471,0.001
0.00037969567347317934,1.0,0.3670130670070648,0.9368888735771179,0.001
0.0003968059900216758,1.0,0.3673093318939209,0.9371111392974854,0.001
0.0003365885349921882,1.0,0.3652084171772003,0.9371111392974854,0.001
0.0005640225135721266,1.0,0.3628024458885193,0.9364444613456726,0.001
0.0005842727259732783,1.0,0.3599663972854614,0.9357777833938599,0.001
0.0004935559700243175,1.0,0.36071664094924927,0.9386666417121887,0.001
0.00044733707909472287,1.0,0.36372047662734985,0.9404444694519043,0.001
0.00038601370761170983,1.0,0.36430832743644714,0.9393333196640015,0.001
0.0003063404292333871,1.0,0.3655412197113037,0.9391111135482788,0.001
0.00025782754528336227,1.0,0.3679032325744629,0.9388889074325562,0.001
0.0002947260800283402,1.0,0.3695319592952728,0.9386666417121887,0.001
0.000292287120828405,1.0,0.3699893653392792,0.9382222294807434,0.001
0.00038041852531023324,1.0,0.3693341612815857,0.9375555515289307,0.001
0.0002848262956831604,1.0,0.3706061542034149,0.9375555515289307,0.001
0.0002345235407119617,1.0,0.3716055154800415,0.9377777576446533,0.001
0.00021963065955787897,1.0,0.37336498498916626,0.9377777576446533,0.001
0.0002525591989979148,1.0,0.3740961253643036,0.9377777576446533,0.001
0.000310754228848964,1.0,0.37483564019203186,0.9380000233650208,0.001
0.0002524095179978758,1.0,0.3765081763267517,0.9384444355964661,0.001
0.00048305292148143053,1.0,0.3745364546775818,0.9380000233650208,0.001
0.00020475451310630888,1.0,0.37325406074523926,0.9384444355964661,0.001
0.00021970292436890304,1.0,0.37385880947113037,0.9380000233650208,0.001
0.00025721630663610995,1.0,0.37485453486442566,0.9371111392974854,0.001
0.00017637116252444685,1.0,0.3766932487487793,0.937333345413208,0.001
0.0002479656250216067,1.0,0.3777337372303009,0.937333345413208,0.001
0.0003991468984168023,1.0,0.3793794810771942,0.9364444613456726,0.001
0.0001494002208346501,1.0,0.3801083564758301,0.9366666674613953,0.001
0.00028802696033380926,1.0,0.3805355429649353,0.9368888735771179,0.001
0.0004205502336844802,1.0,0.3783279061317444,0.9366666674613953,0.001
0.00017482215480413288,1.0,0.37824222445487976,0.9375555515289307,0.001
0.00020570021297316998,1.0,0.37903326749801636,0.9386666417121887,0.001
0.00018152050324715674,1.0,0.3803999722003937,0.9382222294807434,0.001
0.00014207612548489124,1.0,0.3815624713897705,0.9380000233650208,0.001
0.00016545223479624838,1.0,0.38306427001953125,0.9377777576446533,0.001
0.00014932453632354736,1.0,0.3843623995780945,0.9380000233650208,0.001
0.000157173300976865,1.0,0.3848626911640167,0.9371111392974854,0.001
0.00033800918026827276,1.0,0.38787245750427246,0.9362221956253052,0.001
0.00015288323629647493,1.0,0.3898145854473114,0.9364444613456726,0.001
0.00013738786219619215,1.0,0.3909033238887787,0.9355555772781372,0.001
0.00014891162572894245,1.0,0.3913154602050781,0.9359999895095825,0.001
0.00017510802717879415,1.0,0.3911971151828766,0.9359999895095825,0.001
0.00019693175272550434,1.0,0.39086008071899414,0.9362221956253052,0.001
0.0001273437519557774,1.0,0.39107009768486023,0.9368888735771179,0.001
0.0001380289759254083,1.0,0.39065873622894287,0.9371111392974854,0.001
0.00013965035032015294,1.0,0.39156946539878845,0.9375555515289307,0.001
0.0001521630329079926,1.0,0.3930037021636963,0.9393333196640015,0.001
0.00011728645040420815,1.0,0.3945048153400421,0.9393333196640015,0.001
0.00019292136130388826,1.0,0.39553990960121155,0.9391111135482788,0.001
0.00012764775601681322,1.0,0.39652836322784424,0.9388889074325562,0.001
9.109052189160138e-05,1.0,0.3970140814781189,0.9386666417121887,0.001
0.00024982145987451077,1.0,0.39808642864227295,0.9355555772781372,0.001
0.00015757304208818823,1.0,0.3983553946018219,0.9346666932106018,0.001
0.0001305313635384664,1.0,0.3992074131965637,0.9346666932106018,0.001
0.0002144870231859386,1.0,0.3995647430419922,0.9351111054420471,0.001
0.00013067502004560083,1.0,0.3999529480934143,0.9355555772781372,0.001
0.00018609497055877,1.0,0.39816710352897644,0.9362221956253052,0.001
0.00012112146941944957,1.0,0.3978276550769806,0.9364444613456726,0.001
0.00013326748739928007,1.0,0.3984626829624176,0.9366666674613953,0.001
9.973522537620738e-05,1.0,0.3993355333805084,0.9366666674613953,0.001
0.00013522761582862586,1.0,0.40014609694480896,0.9368888735771179,0.001
0.00019379913283046335,1.0,0.40101999044418335,0.9368888735771179,0.001
9.89897089311853e-05,1.0,0.4010862708091736,0.9362221956253052,0.001
0.00011811487638624385,1.0,0.40169283747673035,0.9359999895095825,0.001
0.0002199564187321812,1.0,0.4015165865421295,0.9368888735771179,0.001
0.0001461135398130864,1.0,0.4026627540588379,0.9377777576446533,0.001
0.00012428844638634473,1.0,0.40380239486694336,0.9377777576446533,0.001
0.00010922259389190003,1.0,0.40511125326156616,0.9371111392974854,0.001
8.049026655498892e-05,1.0,0.40650299191474915,0.9364444613456726,0.001
9.737618529470637e-05,1.0,0.40811535716056824,0.9364444613456726,0.001
9.282497921958566e-05,1.0,0.4079298973083496,0.9364444613456726,0.001
0.00014238168660085648,1.0,0.40739360451698303,0.9364444613456726,0.001
0.00011821585212601349,1.0,0.4066992998123169,0.9366666674613953,0.001
0.00021110658417455852,1.0,0.4054487943649292,0.9364444613456726,0.001
0.00010889589611906558,1.0,0.40347230434417725,0.9368888735771179,0.001
0.00010637003288138658,1.0,0.40382012724876404,0.9371111392974854,0.001
8.622090535936877e-05,1.0,0.40438756346702576,0.9366666674613953,0.001
0.00011727838136721402,1.0,0.40406277775764465,0.9357777833938599,0.001
0.00012112274271203205,1.0,0.4055935740470886,0.9357777833938599,0.0005
0.00010026872041635215,1.0,0.40663352608680725,0.9359999895095825,0.0005
0.00010219844989478588,1.0,0.40747499465942383,0.9366666674613953,0.0005
9.24354390008375e-05,1.0,0.4083377420902252,0.9368888735771179,0.0005
7.732411904726177e-05,1.0,0.4088343381881714,0.9371111392974854,0.0005
0.00014774226292502135,1.0,0.40855589509010315,0.9368888735771179,0.0005
6.217462942004204e-05,1.0,0.4085719585418701,0.9357777833938599,0.0005
0.00012015435640932992,1.0,0.40837517380714417,0.9355555772781372,0.0005
9.500140004092827e-05,1.0,0.4087918698787689,0.9355555772781372,0.0005
7.527313573518768e-05,1.0,0.40951353311538696,0.9355555772781372,0.0005
8.7380685727112e-05,1.0,0.4100976586341858,0.9355555772781372,0.0005
6.825185846537352e-05,1.0,0.41081511974334717,0.9357777833938599,0.0005
9.94845395325683e-05,1.0,0.41141873598098755,0.9366666674613953,0.0005
8.006871212273836e-05,1.0,0.4118277430534363,0.9366666674613953,0.0005
0.0001403695496264845,1.0,0.41236379742622375,0.9366666674613953,0.0005
6.94050031597726e-05,1.0,0.4119132161140442,0.9362221956253052,0.0005
7.397078297799453e-05,1.0,0.4119146764278412,0.9362221956253052,0.0005
7.841616752557456e-05,1.0,0.4121803939342499,0.9362221956253052,0.0005
0.00021000162814743817,1.0,0.41279369592666626,0.9362221956253052,0.0005
0.00010520574869588017,1.0,0.41315895318984985,0.9364444613456726,0.0005
0.00012360633991193026,1.0,0.4132177233695984,0.9366666674613953,0.0005
0.00014095602091401815,1.0,0.41262441873550415,0.9359999895095825,0.0005
7.586469291709363e-05,1.0,0.41282743215560913,0.9364444613456726,0.0005
6.677760393358767e-05,1.0,0.4131273925304413,0.9364444613456726,0.0005
0.00012026105832774192,1.0,0.4131157696247101,0.9368888735771179,0.0005
6.897201819811016e-05,1.0,0.41370755434036255,0.9368888735771179,0.0005
8.751678979024291e-05,1.0,0.4142560660839081,0.9366666674613953,0.0005
9.538736776448786e-05,1.0,0.4151204824447632,0.9371111392974854,0.0005
8.662511390866712e-05,1.0,0.41580063104629517,0.9364444613456726,0.0005
0.00015054676623549312,1.0,0.4163570702075958,0.9366666674613953,0.0005
9.720554226078093e-05,1.0,0.41682639718055725,0.9364444613456726,0.0005
5.683366907760501e-05,1.0,0.41698557138442993,0.9364444613456726,0.0005
9.060403681360185e-05,1.0,0.41745099425315857,0.9364444613456726,0.0005
9.072950342670083e-05,1.0,0.41759008169174194,0.9364444613456726,0.0005
9.925057383952662e-05,1.0,0.41776952147483826,0.9366666674613953,0.0005
7.847636879887432e-05,1.0,0.4178120195865631,0.9368888735771179,0.0005
6.069263690733351e-05,1.0,0.41796550154685974,0.937333345413208,0.0005
6.805976590840146e-05,1.0,0.41839033365249634,0.9371111392974854,0.0005
6.834288069512695e-05,1.0,0.4186583459377289,0.937333345413208,0.0005
8.17229229141958e-05,1.0,0.4185025691986084,0.937333345413208,0.0005
7.824763451935723e-05,1.0,0.41821855306625366,0.937333345413208,0.0005
4.838528548134491e-05,1.0,0.4181446135044098,0.9371111392974854,0.0005
0.00013428325473796576,1.0,0.4164022207260132,0.9364444613456726,0.0005
0.0001251513313036412,1.0,0.41439542174339294,0.9362221956253052,0.0005
6.795614899601787e-05,1.0,0.4144829213619232,0.9355555772781372,0.0005
8.108252222882584e-05,1.0,0.415101021528244,0.9362221956253052,0.0005
7.976807683007792e-05,1.0,0.41601797938346863,0.9362221956253052,0.0005
5.312081702868454e-05,1.0,0.4165276288986206,0.9366666674613953,0.0005
7.84579460741952e-05,1.0,0.4172283709049225,0.9368888735771179,0.0005
5.490875628311187e-05,1.0,0.4177122414112091,0.9371111392974854,0.0005
8.930741023505107e-05,1.0,0.41818705201148987,0.9371111392974854,0.0005
0.0001300271542277187,1.0,0.41869670152664185,0.9364444613456726,0.0005
7.14858397259377e-05,1.0,0.4189348816871643,0.9364444613456726,0.0005
6.102679981268011e-05,1.0,0.41890498995780945,0.9364444613456726,0.0005
6.981373007874936e-05,1.0,0.4191838800907135,0.9364444613456726,0.0005
0.0001481452927691862,1.0,0.41939181089401245,0.9368888735771179,0.0005
6.949646194698289e-05,1.0,0.41909632086753845,0.9371111392974854,0.0005
5.761531429016031e-05,1.0,0.41915363073349,0.9368888735771179,0.0005
5.164714457350783e-05,1.0,0.4193640351295471,0.9368888735771179,0.0005
5.6004366342676803e-05,1.0,0.41955259442329407,0.9368888735771179,0.0005
4.559632361633703e-05,1.0,0.41966500878334045,0.9371111392974854,0.0005
6.0255290009081364e-05,1.0,0.41991037130355835,0.9371111392974854,0.0005
6.064102126401849e-05,1.0,0.4200897812843323,0.9371111392974854,0.0005
0.00011078204261139035,1.0,0.4196600914001465,0.9366666674613953,0.0005
6.69123328407295e-05,1.0,0.4194483160972595,0.9366666674613953,0.0005
5.098622932564467e-05,1.0,0.41947996616363525,0.9366666674613953,0.0005
5.0990893214475363e-05,1.0,0.4196679890155792,0.9368888735771179,0.0005
7.759685104247183e-05,1.0,0.42000773549079895,0.9366666674613953,0.0005
9.327183215646073e-05,1.0,0.4196073114871979,0.9371111392974854,0.0005
4.349793016444892e-05,1.0,0.419664591550827,0.9366666674613953,0.0005
7.21278483979404e-05,1.0,0.4200054109096527,0.9366666674613953,0.0005
4.823640119866468e-05,1.0,0.4205465614795685,0.9371111392974854,0.0005
6.57497948850505e-05,1.0,0.42114514112472534,0.937333345413208,0.0005
8.192248060368001e-05,1.0,0.42170172929763794,0.937333345413208,0.0005
6.88316795276478e-05,1.0,0.4221620261669159,0.9366666674613953,0.0005
9.138297173194587e-05,1.0,0.42223143577575684,0.9368888735771179,0.0005
8.002197864698246e-05,1.0,0.42208099365234375,0.9368888735771179,0.0005
6.190690328367054e-05,1.0,0.4194309711456299,0.937333345413208,0.0005
4.558085129247047e-05,1.0,0.41854703426361084,0.9371111392974854,0.0005
6.012211451889016e-05,1.0,0.4182800352573395,0.9371111392974854,0.0005
7.062086660880595e-05,1.0,0.41787174344062805,0.9371111392974854,0.0005
6.389777263393626e-05,1.0,0.4179663360118866,0.9368888735771179,0.0005
8.712299313629046e-05,1.0,0.4184732139110565,0.9362221956253052,0.0005
5.486770169227384e-05,1.0,0.4187260568141937,0.9362221956253052,0.0005
7.115252083167434e-05,1.0,0.4193476140499115,0.9362221956253052,0.0005
3.710659439093433e-05,1.0,0.42006590962409973,0.9364444613456726,0.0005
4.282105146558024e-05,1.0,0.42100903391838074,0.9362221956253052,0.0005
5.7699922763276845e-05,1.0,0.4218934178352356,0.9366666674613953,0.0005
8.896776853362098e-05,1.0,0.4226905107498169,0.9362221956253052,0.0005
3.4567299735499546e-05,1.0,0.4231172502040863,0.9364444613456726,0.0005
6.382950959959999e-05,1.0,0.4234165847301483,0.9368888735771179,0.0005
5.8177865867037326e-05,1.0,0.423672616481781,0.9371111392974854,0.0005
6.370048504322767e-05,1.0,0.42377883195877075,0.9371111392974854,0.00025
6.51393856969662e-05,1.0,0.4239529073238373,0.9371111392974854,0.00025
5.345969839254394e-05,1.0,0.42423486709594727,0.9371111392974854,0.00025
4.839395478484221e-05,1.0,0.424455463886261,0.937333345413208,0.00025
9.169027907773852e-05,1.0,0.4244956374168396,0.9375555515289307,0.00025
5.657127985614352e-05,1.0,0.4243656098842621,0.937333345413208,0.00025
3.4956705349031836e-05,1.0,0.4243169128894806,0.937333345413208,0.00025
5.8026544138556346e-05,1.0,0.42439544200897217,0.9375555515289307,0.00025
3.899467992596328e-05,1.0,0.42463526129722595,0.937333345413208,0.00025
5.348279228201136e-05,1.0,0.4248529076576233,0.937333345413208,0.00025
8.738819451536983e-05,1.0,0.4247620403766632,0.937333345413208,0.00025
4.9196474719792604e-05,1.0,0.42460641264915466,0.937333345413208,0.00025
8.557695400668308e-05,1.0,0.42469778656959534,0.9366666674613953,0.00025
3.163272049278021e-05,1.0,0.42459502816200256,0.9366666674613953,0.00025
7.177135557867587e-05,1.0,0.4248414933681488,0.9366666674613953,0.00025
6.939899321878329e-05,1.0,0.4251759946346283,0.9366666674613953,0.00025
5.6761295127216727e-05,1.0,0.42576560378074646,0.9368888735771179,0.00025
7.243207073770463e-05,1.0,0.4262155592441559,0.9368888735771179,0.00025
5.783802043879405e-05,1.0,0.4265247583389282,0.9371111392974854,0.00025
4.8308898840332404e-05,1.0,0.426945298910141,0.9368888735771179,0.00025
3.5707409551832825e-05,1.0,0.42712220549583435,0.9371111392974854,0.00025
0.00018133549019694328,1.0,0.42598503828048706,0.9384444355964661,0.00025
4.7873985749902204e-05,1.0,0.4255083203315735,0.9391111135482788,0.00025
5.3506366384681314e-05,1.0,0.4254189431667328,0.9388889074325562,0.00025
4.6543464122805744e-05,1.0,0.4253378212451935,0.9382222294807434,0.00025
5.2380881243152544e-05,1.0,0.4253196716308594,0.9377777576446533,0.00025
4.733875903184526e-05,1.0,0.4251514971256256,0.937333345413208,0.00025
5.94665871176403e-05,1.0,0.42517271637916565,0.937333345413208,0.00025
4.520498259807937e-05,1.0,0.4253460466861725,0.937333345413208,0.00025
6.767614104319364e-05,1.0,0.42496103048324585,0.9366666674613953,0.00025
6.617895269300789e-05,1.0,0.4248676300048828,0.9362221956253052,0.00025
3.8116020732559264e-05,1.0,0.4247639775276184,0.9364444613456726,0.00025
5.057480666437186e-05,1.0,0.42514246702194214,0.9364444613456726,0.00025
7.855722651584074e-05,1.0,0.42542749643325806,0.9364444613456726,0.00025
4.64981458208058e-05,1.0,0.4257497489452362,0.9364444613456726,0.00025
3.870595173793845e-05,1.0,0.42625731229782104,0.9364444613456726,0.00025
6.143563223304227e-05,1.0,0.4269024431705475,0.9366666674613953,0.00025
6.243297684704885e-05,1.0,0.42712271213531494,0.9366666674613953,0.00025
0.00012089681695215404,1.0,0.42764565348625183,0.9368888735771179,0.00025
8.044740388868377e-05,1.0,0.42788130044937134,0.9368888735771179,0.00025
5.849458830198273e-05,1.0,0.42799070477485657,0.9371111392974854,0.00025
6.117037264630198e-05,1.0,0.428046315908432,0.9371111392974854,0.00025
4.304850153857842e-05,1.0,0.4283229112625122,0.9368888735771179,0.00025
5.379724098020233e-05,1.0,0.42850038409233093,0.9368888735771179,0.00025
4.707287371275015e-05,1.0,0.4281453788280487,0.9368888735771179,0.00025
4.745633123093285e-05,1.0,0.4277759790420532,0.9368888735771179,0.00025
2.7830317776533775e-05,1.0,0.4275874197483063,0.9368888735771179,0.00025
4.579117739922367e-05,1.0,0.42761337757110596,0.9368888735771179,0.00025
3.89269225706812e-05,1.0,0.4274212718009949,0.9368888735771179,0.00025
7.291017391253263e-05,1.0,0.42735397815704346,0.9368888735771179,0.00025
4.72559331683442e-05,1.0,0.4273739457130432,0.9366666674613953,0.000125
3.76241332560312e-05,1.0,0.4275681674480438,0.9364444613456726,0.000125
5.6869263062253594e-05,1.0,0.42796584963798523,0.9364444613456726,0.000125
4.815352804143913e-05,1.0,0.42836862802505493,0.9364444613456726,0.000125
4.145502680330537e-05,1.0,0.4286334216594696,0.9364444613456726,0.000125
4.30306390626356e-05,1.0,0.42880529165267944,0.9364444613456726,0.000125
9.00676823221147e-05,1.0,0.4290506839752197,0.9366666674613953,0.000125
7.746972551103681e-05,1.0,0.42904406785964966,0.9362221956253052,0.000125
4.687640102929436e-05,1.0,0.42915233969688416,0.9359999895095825,0.000125
2.9326942240004428e-05,1.0,0.4293290674686432,0.9359999895095825,0.000125
4.1154245991492644e-05,1.0,0.4295184314250946,0.9359999895095825,0.000125
4.3893254769500345e-05,1.0,0.429630309343338,0.9359999895095825,0.000125
4.065808388986625e-05,1.0,0.4298572838306427,0.9359999895095825,0.000125
5.001559111406095e-05,1.0,0.4300604462623596,0.9359999895095825,0.000125
5.3410647524287924e-05,1.0,0.43010208010673523,0.9362221956253052,0.000125
3.885279147652909e-05,1.0,0.4301505386829376,0.9362221956253052,0.000125
4.661847196985036e-05,1.0,0.43046480417251587,0.9362221956253052,0.000125
3.873069726978429e-05,1.0,0.4306669235229492,0.9362221956253052,0.000125
3.53271170752123e-05,1.0,0.4308224320411682,0.9364444613456726,0.000125
5.63507855986245e-05,1.0,0.4310484528541565,0.9364444613456726,0.000125
5.978881017654203e-05,1.0,0.4312514364719391,0.9364444613456726,0.000125
5.229283851804212e-05,1.0,0.43134862184524536,0.9364444613456726,0.000125
5.347162368707359e-05,1.0,0.4313724935054779,0.9364444613456726,0.000125
4.8003465053625405e-05,1.0,0.4315202236175537,0.9364444613456726,0.000125
4.6510191168636084e-05,1.0,0.43170666694641113,0.9364444613456726,0.000125
3.653598469099961e-05,1.0,0.43176427483558655,0.9366666674613953,0.000125
3.836227915599011e-05,1.0,0.4317992925643921,0.9366666674613953,0.000125
5.035642607253976e-05,1.0,0.4317874312400818,0.9366666674613953,0.000125
3.676308915601112e-05,1.0,0.43188178539276123,0.9366666674613953,0.000125
8.944953879108652e-05,1.0,0.4317326247692108,0.9368888735771179,0.000125
4.336974234320223e-05,1.0,0.43117937445640564,0.9368888735771179,0.000125
5.189425792195834e-05,1.0,0.43102186918258667,0.9368888735771179,0.000125
5.040381438448094e-05,1.0,0.43095049262046814,0.9368888735771179,0.000125
4.583737245411612e-05,1.0,0.43093574047088623,0.9368888735771179,0.000125
3.839376586256549e-05,1.0,0.4308944046497345,0.9368888735771179,0.000125
3.11211115331389e-05,1.0,0.4309389889240265,0.9368888735771179,0.000125
5.164529648027383e-05,1.0,0.4309154152870178,0.9368888735771179,0.000125
8.583230373915285e-05,1.0,0.43077221512794495,0.9368888735771179,0.000125
0.00010379044397268444,1.0,0.4306386709213257,0.9366666674613953,0.000125
4.648516915040091e-05,1.0,0.43054336309432983,0.9366666674613953,0.000125
3.746840593521483e-05,1.0,0.43069180846214294,0.9364444613456726,0.000125
3.7850804801564664e-05,1.0,0.43077775835990906,0.9366666674613953,0.000125
3.28306523442734e-05,1.0,0.43095237016677856,0.9366666674613953,0.000125
2.598090395622421e-05,1.0,0.4310557544231415,0.9366666674613953,0.000125
5.5164509831229225e-05,1.0,0.43129804730415344,0.9366666674613953,0.000125
4.169762905803509e-05,1.0,0.43182671070098877,0.9366666674613953,0.000125
2.8536089303088374e-05,1.0,0.4322154223918915,0.9366666674613953,0.000125
3.376301901880652e-05,1.0,0.4324369430541992,0.9366666674613953,0.000125
3.618654955062084e-05,1.0,0.4325196146965027,0.9366666674613953,0.000125
5.983230585115962e-05,1.0,0.4326358437538147,0.9366666674613953,0.000125
2.894440149248112e-05,1.0,0.4325528144836426,0.9366666674613953,1e-04
5.057942689745687e-05,1.0,0.4323781728744507,0.9366666674613953,1e-04
2.7386100555304438e-05,1.0,0.43243423104286194,0.9366666674613953,1e-04
4.982527025276795e-05,1.0,0.43241459131240845,0.9366666674613953,1e-04
3.417681728024036e-05,1.0,0.43240177631378174,0.9366666674613953,1e-04
3.00170031550806e-05,1.0,0.4323756992816925,0.9368888735771179,1e-04
4.103640458197333e-05,1.0,0.4323413670063019,0.9368888735771179,1e-04
5.070803308626637e-05,1.0,0.4323364198207855,0.9368888735771179,1e-04
3.61975071427878e-05,1.0,0.4322018325328827,0.9366666674613953,1e-04
3.9079473935998976e-05,1.0,0.43217557668685913,0.9366666674613953,1e-04
3.997417661594227e-05,1.0,0.43237918615341187,0.9366666674613953,1e-04
3.270370507379994e-05,1.0,0.4324556887149811,0.9366666674613953,1e-04
5.910781692364253e-05,1.0,0.43270882964134216,0.9366666674613953,1e-04
3.1438947189599276e-05,1.0,0.432710200548172,0.9368888735771179,1e-04
3.2869342248886824e-05,1.0,0.43292757868766785,0.9368888735771179,1e-04
3.154523437842727e-05,1.0,0.43316322565078735,0.9368888735771179,1e-04
7.067113619996235e-05,1.0,0.4330863952636719,0.9366666674613953,1e-04
2.625506567710545e-05,1.0,0.43302831053733826,0.9366666674613953,1e-04
3.4281045373063534e-05,1.0,0.4330613911151886,0.9368888735771179,1e-04
2.6854393581743352e-05,1.0,0.43306952714920044,0.9368888735771179,1e-04
4.973539398633875e-05,1.0,0.43322569131851196,0.9368888735771179,1e-04
3.7128509575268254e-05,1.0,0.43323081731796265,0.9368888735771179,1e-04
4.514940519584343e-05,1.0,0.43337884545326233,0.9368888735771179,1e-04
5.677718945662491e-05,1.0,0.4333095848560333,0.9368888735771179,1e-04
2.5696570446598344e-05,1.0,0.4331340789794922,0.9368888735771179,1e-04
3.7895235436735675e-05,1.0,0.43306341767311096,0.9368888735771179,1e-04
4.468684346647933e-05,1.0,0.43302926421165466,0.9368888735771179,1e-04
5.477094600792043e-05,1.0,0.43287697434425354,0.9368888735771179,1e-04
4.060084029333666e-05,1.0,0.4325580298900604,0.9366666674613953,1e-04
4.8564281314611435e-05,1.0,0.4324219226837158,0.9366666674613953,1e-04
3.533286871970631e-05,1.0,0.43244805932044983,0.9366666674613953,1e-04
5.967470133327879e-05,1.0,0.43261557817459106,0.9366666674613953,1e-04
5.1683142373804e-05,1.0,0.43254029750823975,0.9366666674613953,1e-04
2.635879354784265e-05,1.0,0.43254610896110535,0.9366666674613953,1e-04
5.907742161070928e-05,1.0,0.43271568417549133,0.9366666674613953,1e-04
5.1865397836081684e-05,1.0,0.43284475803375244,0.9366666674613953,1e-04
3.749802635866217e-05,1.0,0.43289896845817566,0.9366666674613953,1e-04
3.594616646296345e-05,1.0,0.4330349862575531,0.9368888735771179,1e-04
3.674344043247402e-05,1.0,0.43313997983932495,0.9368888735771179,1e-04
8.123565930873156e-05,1.0,0.4329388737678528,0.9366666674613953,1e-04
5.084309304947965e-05,1.0,0.43265166878700256,0.9364444613456726,1e-04
3.3789092412916943e-05,1.0,0.43269041180610657,0.9364444613456726,1e-04
5.033711204305291e-05,1.0,0.43274080753326416,0.9364444613456726,1e-04
4.707850530394353e-05,1.0,0.432954341173172,0.9364444613456726,1e-04
4.785052442457527e-05,1.0,0.43279966711997986,0.9366666674613953,1e-04
3.18707425321918e-05,1.0,0.4327695965766907,0.9366666674613953,1e-04
5.999502172926441e-05,1.0,0.43303510546684265,0.9366666674613953,1e-04
5.181453161640093e-05,1.0,0.4332861602306366,0.9366666674613953,1e-04
3.444324465817772e-05,1.0,0.4334976077079773,0.9366666674613953,1e-04
5.84765148232691e-05,1.0,0.4337475895881653,0.9364444613456726,1e-04
4.812381666852161e-05,1.0,0.4339287579059601,0.9366666674613953,1e-04
4.8118785343831405e-05,1.0,0.4342477023601532,0.9366666674613953,1e-04
2.9187413019826636e-05,1.0,0.4343627989292145,0.9368888735771179,1e-04
3.685355113702826e-05,1.0,0.43453940749168396,0.9368888735771179,1e-04
5.7743942306842655e-05,1.0,0.4343917965888977,0.9368888735771179,1e-04
2.813780156429857e-05,1.0,0.4343416392803192,0.9368888735771179,1e-04
3.8471298466902226e-05,1.0,0.43438810110092163,0.9368888735771179,1e-04
4.1861490899464116e-05,1.0,0.4345299303531647,0.9368888735771179,1e-04
6.116446456871927e-05,1.0,0.4345807135105133,0.9371111392974854,1e-04
4.477862603380345e-05,1.0,0.4342864155769348,0.9368888735771179,1e-04
4.2299318010918796e-05,1.0,0.43385446071624756,0.9368888735771179,1e-04
4.6320627006934956e-05,1.0,0.43384623527526855,0.9368888735771179,1e-04
2.5627965442254208e-05,1.0,0.43389707803726196,0.9368888735771179,1e-04
6.850646605016664e-05,1.0,0.43397757411003113,0.9371111392974854,1e-04
2.53769558185013e-05,1.0,0.4334556460380554,0.937333345413208,1e-04
4.8276611778419465e-05,1.0,0.43332430720329285,0.937333345413208,1e-04
3.639215719886124e-05,1.0,0.4332486689090729,0.937333345413208,1e-04
4.043187072966248e-05,1.0,0.43332594633102417,0.937333345413208,1e-04
3.151486089336686e-05,1.0,0.4334758520126343,0.937333345413208,1e-04
4.1329596569994465e-05,1.0,0.4335452616214752,0.9375555515289307,1e-04
5.7552555517759174e-05,1.0,0.4332163333892822,0.937333345413208,1e-04
3.1992822187021375e-05,1.0,0.43269243836402893,0.937333345413208,1e-04
3.7161582440603524e-05,1.0,0.4323807954788208,0.937333345413208,1e-04
3.502545951050706e-05,1.0,0.4323056638240814,0.937333345413208,1e-04
3.680341615108773e-05,1.0,0.4323769509792328,0.9368888735771179,1e-04
6.526016659336165e-05,1.0,0.4325539171695709,0.9371111392974854,1e-04
2.5260500478907488e-05,1.0,0.432804137468338,0.9371111392974854,1e-04
2.5523919248371385e-05,1.0,0.43296724557876587,0.937333345413208,1e-04
4.186538717476651e-05,1.0,0.4331733286380768,0.937333345413208,1e-04
6.548529927385971e-05,1.0,0.43356621265411377,0.9368888735771179,1e-04
2.7117404897580855e-05,1.0,0.43333548307418823,0.9371111392974854,1e-04
2.856932951544877e-05,1.0,0.4332512617111206,0.937333345413208,1e-04
3.07008194795344e-05,1.0,0.433336466550827,0.937333345413208,1e-04
3.478330108919181e-05,1.0,0.43336221575737,0.937333345413208,1e-04
4.274964885553345e-05,1.0,0.43356701731681824,0.937333345413208,1e-04
3.307841325295158e-05,1.0,0.43372055888175964,0.937333345413208,1e-04
3.739038947969675e-05,1.0,0.43385812640190125,0.937333345413208,1e-04
4.343700493336655e-05,1.0,0.43399667739868164,0.937333345413208,1e-04
2.7355248676030897e-05,1.0,0.4340806007385254,0.937333345413208,1e-04
4.465878373594023e-05,1.0,0.43411633372306824,0.937333345413208,1e-04
4.5870416215620935e-05,1.0,0.434381902217865,0.937333345413208,1e-04
2.8573162126122043e-05,1.0,0.43444404006004333,0.937333345413208,1e-04
3.272819230915047e-05,1.0,0.43458008766174316,0.937333345413208,1e-04
5.4060627007856965e-05,1.0,0.4347895383834839,0.937333345413208,1e-04
2.6548595997155644e-05,1.0,0.43486398458480835,0.937333345413208,1e-04
2.860974745999556e-05,1.0,0.4349353015422821,0.937333345413208,1e-04
2.7500685973791406e-05,1.0,0.43499326705932617,0.937333345413208,1e-04
2.6199861167697236e-05,1.0,0.43499237298965454,0.937333345413208,1e-04
3.630994615377858e-05,1.0,0.43499529361724854,0.937333345413208,1e-04
2.5310806449851952e-05,1.0,0.4350268244743347,0.937333345413208,1e-04
2.6026720661320724e-05,1.0,0.4350432753562927,0.937333345413208,1e-04
6.331015902105719e-05,1.0,0.43532630801200867,0.937333345413208,1e-04
2.464971476001665e-05,1.0,0.4354591369628906,0.9368888735771179,1e-04
3.100306639680639e-05,1.0,0.435642808675766,0.9368888735771179,1e-04
3.5267516068415716e-05,1.0,0.4356774389743805,0.9368888735771179,1e-04
2.821783346007578e-05,1.0,0.4358328580856323,0.9371111392974854,1e-04
5.060567127657123e-05,1.0,0.4360644817352295,0.9371111392974854,1e-04
3.203552114428021e-05,1.0,0.4360271692276001,0.9371111392974854,1e-04
3.641920557129197e-05,1.0,0.4362392723560333,0.9371111392974854,1e-04
3.841635407297872e-05,1.0,0.4362429082393646,0.9371111392974854,1e-04
3.769921022467315e-05,1.0,0.43613263964653015,0.9371111392974854,1e-04
6.17376426816918e-05,1.0,0.4359685182571411,0.9371111392974854,1e-04
3.978790482506156e-05,1.0,0.4360497295856476,0.9371111392974854,1e-04
4.375958087621257e-05,1.0,0.43610405921936035,0.937333345413208,1e-04
2.8022899641655385e-05,1.0,0.4361194968223572,0.937333345413208,1e-04
2.6880301447818056e-05,1.0,0.4362102448940277,0.937333345413208,1e-04
3.381544956937432e-05,1.0,0.43618056178092957,0.937333345413208,1e-04
4.449766856851056e-05,1.0,0.43616780638694763,0.937333345413208,1e-04
4.089448702870868e-05,1.0,0.4361613094806671,0.937333345413208,1e-04
3.537087104632519e-05,1.0,0.4363323152065277,0.937333345413208,1e-04
3.584658043109812e-05,1.0,0.43647995591163635,0.937333345413208,1e-04
3.0472223443211988e-05,1.0,0.4365704357624054,0.9371111392974854,1e-04
3.654603642644361e-05,1.0,0.43673568964004517,0.9371111392974854,1e-04
2.9634580641868524e-05,1.0,0.4368540346622467,0.9371111392974854,1e-04
7.378527516266331e-05,1.0,0.43704500794410706,0.937333345413208,1e-04
4.553309554466978e-05,1.0,0.43738090991973877,0.9375555515289307,1e-04
3.5660763387568295e-05,1.0,0.4371798634529114,0.9375555515289307,1e-04
5.0739836296997964e-05,1.0,0.4369461238384247,0.9375555515289307,1e-04
2.387924905633554e-05,1.0,0.43692415952682495,0.937333345413208,1e-04
7.500283390982077e-05,1.0,0.4364483058452606,0.937333345413208,1e-04
2.071028939099051e-05,1.0,0.43625226616859436,0.937333345413208,1e-04
2.5669751266832463e-05,1.0,0.43619173765182495,0.937333345413208,1e-04
2.4650282284710556e-05,1.0,0.43626484274864197,0.937333345413208,1e-04
3.633727828855626e-05,1.0,0.43634045124053955,0.9375555515289307,1e-04
3.278483563917689e-05,1.0,0.4365655779838562,0.9375555515289307,1e-04
2.946477434306871e-05,1.0,0.4367803931236267,0.9375555515289307,1e-04
8.954318036558107e-05,1.0,0.4358624517917633,0.9375555515289307,1e-04
2.6558378522167914e-05,1.0,0.4352141320705414,0.9377777576446533,1e-04
4.420890036271885e-05,1.0,0.435049444437027,0.9380000233650208,1e-04
2.9026750780758448e-05,1.0,0.4352111220359802,0.9382222294807434,1e-04
8.008719305507839e-05,1.0,0.43488430976867676,0.9380000233650208,1e-04
2.6089104721904732e-05,1.0,0.4348597824573517,0.9368888735771179,1e-04
5.4916345106903464e-05,1.0,0.4353671967983246,0.9362221956253052,1e-04
3.686493437271565e-05,1.0,0.4357615113258362,0.9362221956253052,1e-04
4.249344056006521e-05,1.0,0.43602415919303894,0.9362221956253052,1e-04
3.694995757541619e-05,1.0,0.435994952917099,0.9362221956253052,1e-04
3.840077988570556e-05,1.0,0.4360882043838501,0.9368888735771179,1e-04
5.278885510051623e-05,1.0,0.4361092448234558,0.9368888735771179,1e-04
2.797305023705121e-05,1.0,0.4359947144985199,0.9371111392974854,1e-04
5.376565604819916e-05,1.0,0.435764878988266,0.9377777576446533,1e-04
3.953210762119852e-05,1.0,0.4355430603027344,0.9375555515289307,1e-04
5.663794945576228e-05,1.0,0.43560725450515747,0.937333345413208,1e-04
3.704114715219475e-05,1.0,0.43574708700180054,0.9375555515289307,1e-04
2.3882552341092378e-05,1.0,0.43607810139656067,0.9377777576446533,1e-04
3.9038270188029855e-05,1.0,0.43638673424720764,0.9377777576446533,1e-04
3.93970258301124e-05,1.0,0.43639466166496277,0.9380000233650208,1e-04
3.5834502341458574e-05,1.0,0.4365692734718323,0.9380000233650208,1e-04
2.6228213755530305e-05,1.0,0.43683570623397827,0.9380000233650208,1e-04
4.3901774915866554e-05,1.0,0.4369201958179474,0.9377777576446533,1e-04
2.4784874767647125e-05,1.0,0.4370068609714508,0.9377777576446533,1e-04
2.4359304006793536e-05,1.0,0.4369955062866211,0.9380000233650208,1e-04
2.741167372732889e-05,1.0,0.43707484006881714,0.9380000233650208,1e-04
5.616623457171954e-05,1.0,0.4372788667678833,0.9377777576446533,1e-04
3.1319250410888344e-05,1.0,0.43716180324554443,0.9377777576446533,1e-04
3.34247451974079e-05,1.0,0.4370441734790802,0.9377777576446533,1e-04
2.3591404897160828e-05,1.0,0.43694373965263367,0.9377777576446533,1e-04
3.999469481641427e-05,1.0,0.43710270524024963,0.9377777576446533,1e-04
3.1422197935171425e-05,1.0,0.43725326657295227,0.9377777576446533,1e-04
4.125800478504971e-05,1.0,0.43709397315979004,0.9377777576446533,1e-04
5.6064833188429475e-05,1.0,0.43683382868766785,0.9377777576446533,1e-04
3.379956615390256e-05,1.0,0.43688803911209106,0.937333345413208,1e-04
2.831611709552817e-05,1.0,0.43686947226524353,0.937333345413208,1e-04
2.6568830435280688e-05,1.0,0.4367319643497467,0.937333345413208,1e-04
2.6984935175278224e-05,1.0,0.436824232339859,0.9375555515289307,1e-04
2.938895886472892e-05,1.0,0.43698203563690186,0.937333345413208,1e-04
4.925452230963856e-05,1.0,0.4371257722377777,0.9375555515289307,1e-04
3.7520829209825024e-05,1.0,0.43718746304512024,0.9375555515289307,1e-04
3.0343178877956234e-05,1.0,0.4372697174549103,0.9375555515289307,1e-04
2.978598786285147e-05,1.0,0.43729764223098755,0.9375555515289307,1e-04
3.173447839799337e-05,1.0,0.4374774396419525,0.9375555515289307,1e-04
2.6271585738868453e-05,1.0,0.43745332956314087,0.9377777576446533,1e-04
2.0739482351928018e-05,1.0,0.43758684396743774,0.9377777576446533,1e-04
3.104427014477551e-05,1.0,0.4376794397830963,0.9375555515289307,1e-04
1.662111208133865e-05,1.0,0.4378378093242645,0.9375555515289307,1e-04
4.6498069423250854e-05,1.0,0.4380838871002197,0.9375555515289307,1e-04
3.762641063076444e-05,1.0,0.4384812116622925,0.9375555515289307,1e-04
3.2857707992661744e-05,1.0,0.43892213702201843,0.9375555515289307,1e-04
3.0361026801983826e-05,1.0,0.4390871524810791,0.937333345413208,1e-04
2.0297969967941754e-05,1.0,0.43928346037864685,0.9371111392974854,1e-04
0.00014257212751545012,1.0,0.4391345977783203,0.9366666674613953,1e-04
3.829520210274495e-05,1.0,0.439203143119812,0.9366666674613953,1e-04
2.1172299966565333e-05,1.0,0.4393339157104492,0.9366666674613953,1e-04
3.133844438707456e-05,1.0,0.4393988847732544,0.9368888735771179,1e-04
3.3557374990778044e-05,1.0,0.43952760100364685,0.9366666674613953,1e-04
3.614301749621518e-05,1.0,0.4396142363548279,0.9364444613456726,1e-04
2.3719798264210112e-05,1.0,0.4395957291126251,0.9364444613456726,1e-04
2.89878407784272e-05,1.0,0.43973690271377563,0.9364444613456726,1e-04
1.934723877639044e-05,1.0,0.43981608748435974,0.9364444613456726,1e-04
2.439633863104973e-05,1.0,0.4399961829185486,0.9364444613456726,1e-04
1.9774521206272766e-05,1.0,0.4400639235973358,0.9366666674613953,1e-04
2.169771869375836e-05,1.0,0.4400123655796051,0.9371111392974854,1e-04
4.7421606723219156e-05,1.0,0.43992215394973755,0.9371111392974854,1e-04
3.1750183552503586e-05,1.0,0.43967360258102417,0.9371111392974854,1e-04
2.998497620865237e-05,1.0,0.4396423101425171,0.9371111392974854,1e-04
3.451688462519087e-05,1.0,0.4393976628780365,0.9368888735771179,1e-04
6.036386184860021e-05,1.0,0.4392569661140442,0.9366666674613953,1e-04
4.53245775133837e-05,1.0,0.4391691982746124,0.9371111392974854,1e-04
2.5313845981145278e-05,1.0,0.43886804580688477,0.9371111392974854,1e-04
2.636744102346711e-05,1.0,0.4388335943222046,0.9371111392974854,1e-04
3.0284021704574116e-05,1.0,0.4388595521450043,0.9371111392974854,1e-04
3.520699465298094e-05,1.0,0.4389692544937134,0.9371111392974854,1e-04
3.985559305874631e-05,1.0,0.43900319933891296,0.9371111392974854,1e-04
2.225791831733659e-05,1.0,0.4390586316585541,0.9368888735771179,1e-04
3.6428467865334824e-05,1.0,0.43932193517684937,0.9368888735771179,1e-04
2.743355798884295e-05,1.0,0.43935921788215637,0.9371111392974854,1e-04
1.9284379959572107e-05,1.0,0.43928468227386475,0.9371111392974854,1e-04
2.1643061700160615e-05,1.0,0.4393419027328491,0.9371111392974854,1e-04
1.765745946613606e-05,1.0,0.4393378496170044,0.937333345413208,1e-04
3.0118266295176e-05,1.0,0.43934881687164307,0.9375555515289307,1e-04
3.59442456101533e-05,1.0,0.4395005702972412,0.9375555515289307,1e-04
2.711348315642681e-05,1.0,0.43965834379196167,0.9371111392974854,1e-04
2.653464616741985e-05,1.0,0.4398735463619232,0.9371111392974854,1e-04
2.6633697416400537e-05,1.0,0.44019991159439087,0.9371111392974854,1e-04
3.651558654382825e-05,1.0,0.44062018394470215,0.9368888735771179,1e-04
4.644348882720806e-05,1.0,0.44061967730522156,0.9368888735771179,1e-04
2.556099570938386e-05,1.0,0.440525621175766,0.9366666674613953,1e-04
2.613488868519198e-05,1.0,0.44059818983078003,0.9366666674613953,1e-04
3.6816243664361537e-05,1.0,0.4407486617565155,0.9366666674613953,1e-04
2.257144296891056e-05,1.0,0.44074633717536926,0.9366666674613953,1e-04
3.598196053644642e-05,1.0,0.44073715806007385,0.9371111392974854,1e-04
2.483562275301665e-05,1.0,0.44073161482810974,0.9377777576446533,1e-04
4.8531459469813854e-05,1.0,0.44091469049453735,0.9377777576446533,1e-04
3.114340506726876e-05,1.0,0.4407949149608612,0.9375555515289307,1e-04
3.79371595045086e-05,1.0,0.4407023787498474,0.9377777576446533,1e-04
2.1808598830830306e-05,1.0,0.44061923027038574,0.9377777576446533,1e-04
2.440583375573624e-05,1.0,0.44058045744895935,0.9377777576446533,1e-04
2.596206650196109e-05,1.0,0.4405657947063446,0.937333345413208,1e-04
2.9455792173394002e-05,1.0,0.4406108856201172,0.937333345413208,1e-04
2.3209162463899702e-05,1.0,0.4406115412712097,0.937333345413208,1e-04
2.6874195100390352e-05,1.0,0.44058969616889954,0.937333345413208,1e-04
2.6517391233937815e-05,1.0,0.440702885389328,0.9375555515289307,1e-04
4.783806434716098e-05,1.0,0.44065821170806885,0.9375555515289307,1e-04
2.3182836230262183e-05,1.0,0.4406667947769165,0.9375555515289307,1e-04
3.4355962270637974e-05,1.0,0.4408431649208069,0.9380000233650208,1e-04
2.4001599740586244e-05,1.0,0.44083860516548157,0.9380000233650208,1e-04
2.337279511266388e-05,1.0,0.44087550044059753,0.9380000233650208,1e-04
4.094761607120745e-05,1.0,0.44098901748657227,0.9382222294807434,1e-04
8.580915891798213e-05,1.0,0.44016146659851074,0.9357777833938599,1e-04
2.3229653379530646e-05,1.0,0.44031432271003723,0.9353333115577698,1e-04
2.9801431082887575e-05,1.0,0.44052743911743164,0.9355555772781372,1e-04
2.9861501388950273e-05,1.0,0.44049593806266785,0.9355555772781372,1e-04
3.612686487031169e-05,1.0,0.44030967354774475,0.9357777833938599,1e-04
1.898873051686678e-05,1.0,0.44032731652259827,0.9357777833938599,1e-04
2.0108225726289675e-05,1.0,0.4404911398887634,0.9359999895095825,1e-04
1.9991914086858742e-05,1.0,0.440673828125,0.9362221956253052,1e-04
3.174637458869256e-05,1.0,0.4410829544067383,0.9364444613456726,1e-04
2.608752947708126e-05,1.0,0.44154950976371765,0.9364444613456726,1e-04
1.584854362590704e-05,1.0,0.44151005148887634,0.9368888735771179,1e-04
5.598898133030161e-05,1.0,0.44167953729629517,0.9357777833938599,1e-04
3.316288712085225e-05,1.0,0.4419756829738617,0.9355555772781372,1e-04
2.457679875078611e-05,1.0,0.44238024950027466,0.9355555772781372,1e-04
2.4623574063298292e-05,1.0,0.4423028528690338,0.9357777833938599,1e-04
3.1928851967677474e-05,1.0,0.4423675239086151,0.9359999895095825,1e-04
7.419678149744868e-05,1.0,0.44145268201828003,0.9366666674613953,1e-04
1.4252993423724547e-05,1.0,0.44107547402381897,0.937333345413208,1e-04
3.075492713833228e-05,1.0,0.4412441551685333,0.9375555515289307,1e-04
2.3787584723322652e-05,1.0,0.441310316324234,0.9368888735771179,1e-04
1.925869582919404e-05,1.0,0.44097861647605896,0.9368888735771179,1e-04
1.636068191146478e-05,1.0,0.4410243332386017,0.9368888735771179,1e-04
2.4021890567382798e-05,1.0,0.4413365423679352,0.9368888735771179,1e-04
2.038254933722783e-05,1.0,0.44158485531806946,0.9368888735771179,1e-04
4.8273708671331406e-05,1.0,0.44171467423439026,0.9368888735771179,1e-04
4.820125104743056e-05,1.0,0.441860169172287,0.9364444613456726,1e-04
4.035626261611469e-05,1.0,0.4419732987880707,0.9364444613456726,1e-04
2.45528372033732e-05,1.0,0.4422336518764496,0.9362221956253052,1e-04
1.730960502754897e-05,1.0,0.4426703155040741,0.9364444613456726,1e-04
1.6497120668645948e-05,1.0,0.4429999887943268,0.9371111392974854,1e-04
1.951055855897721e-05,1.0,0.44343963265419006,0.9371111392974854,1e-04
2.1355976059567183e-05,1.0,0.44395822286605835,0.9371111392974854,1e-04
1.5647359759896062e-05,1.0,0.44427838921546936,0.937333345413208,1e-04
2.123033300449606e-05,1.0,0.44440406560897827,0.937333345413208,1e-04
1.8089067452820018e-05,1.0,0.4447495639324188,0.937333345413208,1e-04
3.0339881050167605e-05,1.0,0.44502556324005127,0.9371111392974854,1e-04
3.627698970376514e-05,1.0,0.4449492394924164,0.9368888735771179,1e-04
2.3795459128450602e-05,1.0,0.44472888112068176,0.937333345413208,1e-04
4.066465771757066e-05,1.0,0.44509249925613403,0.9375555515289307,1e-04
1.7774464140529744e-05,1.0,0.4453894793987274,0.9377777576446533,1e-04
3.0092913220869377e-05,1.0,0.4455353617668152,0.9377777576446533,1e-04
2.415625385765452e-05,1.0,0.4455094635486603,0.9377777576446533,1e-04
2.9777413146803156e-05,1.0,0.44562485814094543,0.9377777576446533,1e-04
2.7180834877071902e-05,1.0,0.4456666111946106,0.9377777576446533,1e-04
2.7152713300893083e-05,1.0,0.4453740119934082,0.9377777576446533,1e-04
1.7008789654937573e-05,1.0,0.4452515244483948,0.9377777576446533,1e-04
2.5169965738314204e-05,1.0,0.445200651884079,0.9377777576446533,1e-04
4.477846960071474e-05,1.0,0.4448279142379761,0.9364444613456726,1e-04
2.3561864509247243e-05,1.0,0.44470199942588806,0.9355555772781372,1e-04
2.9121991246938705e-05,1.0,0.44474807381629944,0.9355555772781372,1e-04
2.3072709154803306e-05,1.0,0.44459640979766846,0.9359999895095825,1e-04
3.289637970738113e-05,1.0,0.4441867172718048,0.9362221956253052,1e-04
3.081166141782887e-05,1.0,0.44434046745300293,0.9364444613456726,1e-04
4.631599585991353e-05,1.0,0.444431871175766,0.9362221956253052,1e-04
3.0207216695998795e-05,1.0,0.44442129135131836,0.9362221956253052,1e-04
2.4191731426981278e-05,1.0,0.44433504343032837,0.9368888735771179,1e-04
2.002482142415829e-05,1.0,0.4443976581096649,0.9371111392974854,1e-04
2.4622160708531737e-05,1.0,0.44430848956108093,0.9371111392974854,1e-04
2.0982213754905388e-05,1.0,0.444423109292984,0.9371111392974854,1e-04
1.742542917781975e-05,1.0,0.44451481103897095,0.937333345413208,1e-04
2.412952198938001e-05,1.0,0.4444146454334259,0.937333345413208,1e-04
0.00011821356747532263,1.0,0.44454073905944824,0.9355555772781372,1e-04
2.302236134710256e-05,1.0,0.44732943177223206,0.9317777752876282,1e-04
2.567917363194283e-05,1.0,0.44898971915245056,0.9313333630561829,1e-04
3.1654730264563113e-05,1.0,0.44870734214782715,0.9319999814033508,1e-04
2.6156476451433264e-05,1.0,0.4473845362663269,0.9342222213745117,1e-04
2.4986869902932085e-05,1.0,0.44731810688972473,0.9362221956253052,1e-04
2.411823697912041e-05,1.0,0.44755783677101135,0.9368888735771179,1e-04
5.9843416238436475e-05,1.0,0.4470548629760742,0.937333345413208,1e-04
3.1846702768234536e-05,1.0,0.44458138942718506,0.9380000233650208,1e-04
2.762396979960613e-05,1.0,0.44326016306877136,0.9380000233650208,1e-04
2.0650748410844244e-05,1.0,0.44270268082618713,0.9380000233650208,1e-04
2.158518327632919e-05,1.0,0.4425140917301178,0.9380000233650208,1e-04
2.6928059014608152e-05,1.0,0.4427790343761444,0.9380000233650208,1e-04
2.1177005692152306e-05,1.0,0.4434732496738434,0.9377777576446533,1e-04
2.0587795006576926e-05,1.0,0.4441331923007965,0.9377777576446533,1e-04
1.408671960234642e-05,1.0,0.4444313645362854,0.9377777576446533,1e-04
2.239939567516558e-05,1.0,0.444684773683548,0.9377777576446533,1e-04
3.241358353989199e-05,1.0,0.4451410174369812,0.937333345413208,1e-04
2.334666351089254e-05,1.0,0.4454353451728821,0.937333345413208,1e-04
2.3822345610824414e-05,1.0,0.4458172619342804,0.937333345413208,1e-04
2.5778250346775167e-05,1.0,0.44638222455978394,0.937333345413208,1e-04
1.9074446754530072e-05,1.0,0.4469670355319977,0.9371111392974854,1e-04
2.540181412769016e-05,1.0,0.4473505914211273,0.937333345413208,1e-04
1.9227300072088838e-05,1.0,0.447666734457016,0.9375555515289307,1e-04
2.4113987819873728e-05,1.0,0.4479026794433594,0.9375555515289307,1e-04
3.027414823009167e-05,1.0,0.44812798500061035,0.9368888735771179,1e-04
2.1457306502270512e-05,1.0,0.4481159448623657,0.9371111392974854,1e-04
2.205204509664327e-05,1.0,0.4482231140136719,0.9371111392974854,1e-04
1.3311020666151308e-05,1.0,0.44816654920578003,0.9371111392974854,1e-04
2.1086261767777614e-05,1.0,0.4484560191631317,0.937333345413208,1e-04
1.5147553312999662e-05,1.0,0.44852644205093384,0.9375555515289307,1e-04
1.8281385564478114e-05,1.0,0.44856104254722595,0.9375555515289307,1e-04
1.997693834709935e-05,1.0,0.44896137714385986,0.9375555515289307,1e-04
2.4822791601764038e-05,1.0,0.44912639260292053,0.937333345413208,1e-04
2.9301301765372045e-05,1.0,0.448778361082077,0.9375555515289307,1e-04
1.3091157597955316e-05,1.0,0.4481343924999237,0.9375555515289307,1e-04
3.8335838326020166e-05,1.0,0.4473831057548523,0.9375555515289307,1e-04
2.41018151427852e-05,1.0,0.4471358060836792,0.9375555515289307,1e-04
2.1596855731331743e-05,1.0,0.4467940032482147,0.9375555515289307,1e-04
2.1801026377943344e-05,1.0,0.4466637074947357,0.9375555515289307,1e-04
2.0321229385444894e-05,1.0,0.4467546045780182,0.9375555515289307,1e-04
1.9571203665691428e-05,1.0,0.4466809928417206,0.9377777576446533,1e-04
1.7321272025583312e-05,1.0,0.4462297558784485,0.9377777576446533,1e-04
3.098369052167982e-05,1.0,0.4464409053325653,0.9375555515289307,1e-04
2.034409044426866e-05,1.0,0.44661402702331543,0.9375555515289307,1e-04
4.0607312257634476e-05,1.0,0.4470372498035431,0.9375555515289307,1e-04
2.1026895410614088e-05,1.0,0.44722557067871094,0.937333345413208,1e-04
1.5069073015183676e-05,1.0,0.44757184386253357,0.9371111392974854,1e-04
1.9599816369009204e-05,1.0,0.4479867219924927,0.937333345413208,1e-04
2.280802436871454e-05,1.0,0.4485071897506714,0.9375555515289307,1e-04
1.4956818631617352e-05,1.0,0.44889035820961,0.9375555515289307,1e-04
1.2920231711177621e-05,1.0,0.4492478370666504,0.9375555515289307,1e-04
1.784936830517836e-05,1.0,0.4493429660797119,0.9375555515289307,1e-04
2.545526876929216e-05,1.0,0.4491325318813324,0.9375555515289307,1e-04
1.5281661035260186e-05,1.0,0.449274480342865,0.9375555515289307,1e-04
1.6630492609692737e-05,1.0,0.44942134618759155,0.9375555515289307,1e-04
1.8987951989402063e-05,1.0,0.4495823383331299,0.937333345413208,1e-04
1.463704029447399e-05,1.0,0.449771910905838,0.937333345413208,1e-04
2.0523810235317796e-05,1.0,0.4499914050102234,0.937333345413208,1e-04
1.6314452295773663e-05,1.0,0.4503798186779022,0.937333345413208,1e-04
1.7286518414039165e-05,1.0,0.45050010085105896,0.937333345413208,1e-04
1.712899211270269e-05,1.0,0.45058777928352356,0.9375555515289307,1e-04
2.4702669179532677e-05,1.0,0.45055651664733887,0.9368888735771179,1e-04
1.798292578314431e-05,1.0,0.45070788264274597,0.9368888735771179,1e-04
2.822617352649104e-05,1.0,0.4509800970554352,0.9368888735771179,1e-04
2.0146022507105954e-05,1.0,0.45064985752105713,0.9368888735771179,1e-04
1.9163780962117016e-05,1.0,0.45058757066726685,0.9368888735771179,1e-04
1.7819253116613254e-05,1.0,0.450644314289093,0.9371111392974854,1e-04
3.7262165278661996e-05,1.0,0.450626403093338,0.9375555515289307,1e-04
1.9051994968322106e-05,1.0,0.45116567611694336,0.9375555515289307,1e-04
2.1573612684733234e-05,1.0,0.451649010181427,0.937333345413208,1e-04
1.6728899936424568e-05,1.0,0.45235058665275574,0.9371111392974854,1e-04
1.4119005754764657e-05,1.0,0.45288214087486267,0.9371111392974854,1e-04
1.6073512597358786e-05,1.0,0.45316004753112793,0.937333345413208,1e-04
1.314293058385374e-05,1.0,0.4532102942466736,0.937333345413208,1e-04
2.1320005544112064e-05,1.0,0.45261409878730774,0.937333345413208,1e-04
1.4499831195280422e-05,1.0,0.452393114566803,0.937333345413208,1e-04
1.834231625252869e-05,1.0,0.45232903957366943,0.937333345413208,1e-04
1.753694778017234e-05,1.0,0.452446311712265,0.9377777576446533,1e-04
2.099537232425064e-05,1.0,0.4524877071380615,0.937333345413208,1e-04
2.074662370432634e-05,1.0,0.4525386095046997,0.937333345413208,1e-04
2.2364218239090405e-05,1.0,0.4527197778224945,0.937333345413208,1e-04
1.556481765874196e-05,1.0,0.4526749551296234,0.937333345413208,1e-04
1.9185155906598084e-05,1.0,0.4527707099914551,0.9375555515289307,1e-04
2.0465155103011057e-05,1.0,0.45251867175102234,0.9375555515289307,1e-04
1.058917860063957e-05,1.0,0.45124030113220215,0.9375555515289307,1e-04
2.2480349798570387e-05,1.0,0.4507560729980469,0.9377777576446533,1e-04
2.2210766474017873e-05,1.0,0.450167715549469,0.9377777576446533,1e-04
2.0751971533172764e-05,1.0,0.4499395191669464,0.937333345413208,1e-04
2.1796111468574964e-05,1.0,0.44982612133026123,0.937333345413208,1e-04
1.683519803918898e-05,1.0,0.44984617829322815,0.9368888735771179,1e-04
1.4725196706422139e-05,1.0,0.4501591622829437,0.9368888735771179,1e-04
1.4379545064002741e-05,1.0,0.45047879219055176,0.9368888735771179,1e-04
1.420763146597892e-05,1.0,0.4505701959133148,0.9368888735771179,1e-04
1.862080898717977e-05,1.0,0.4508880376815796,0.937333345413208,1e-04
2.009668605751358e-05,1.0,0.4509026110172272,0.9375555515289307,1e-04
3.167512477375567e-05,1.0,0.45079681277275085,0.9377777576446533,1e-04
1.4446057321038097e-05,1.0,0.4506867527961731,0.9368888735771179,1e-04
1.9714425434358418e-05,1.0,0.4508713185787201,0.9364444613456726,1e-04
1.936525404744316e-05,1.0,0.45122358202934265,0.9364444613456726,1e-04
2.322292493772693e-05,1.0,0.4511200189590454,0.9366666674613953,1e-04
1.7141035641543567e-05,1.0,0.45084720849990845,0.9371111392974854,1e-04
1.6076488464022987e-05,1.0,0.4507310390472412,0.9371111392974854,1e-04
2.427036815788597e-05,1.0,0.45107296109199524,0.9368888735771179,1e-04
1.3145046068530064e-05,1.0,0.45154905319213867,0.9366666674613953,1e-04
1.5392824934679084e-05,1.0,0.4519902467727661,0.9366666674613953,1e-04
9.804289220483042e-06,1.0,0.45234793424606323,0.9364444613456726,1e-04
1.1560518032638356e-05,1.0,0.4523993730545044,0.9366666674613953,1e-04
1.6954705643001944e-05,1.0,0.4526669681072235,0.9371111392974854,1e-04
1.4186183761921711e-05,1.0,0.45301011204719543,0.9371111392974854,1e-04
8.960365448729135e-06,1.0,0.4530726373195648,0.9375555515289307,1e-04
3.509140879032202e-05,1.0,0.45350345969200134,0.937333345413208,1e-04
1.9958439224865288e-05,1.0,0.45352670550346375,0.9368888735771179,1e-04
1.6867661543074064e-05,1.0,0.4537562131881714,0.9371111392974854,1e-04
1.6435991710750386e-05,1.0,0.4537302851676941,0.9375555515289307,1e-04
2.947802386188414e-05,1.0,0.45356929302215576,0.9371111392974854,1e-04
2.6298472221242264e-05,1.0,0.4532245695590973,0.937333345413208,1e-04
1.1575907592487056e-05,1.0,0.4531940519809723,0.9375555515289307,1e-04
1.2815660738851875e-05,1.0,0.45313844084739685,0.9371111392974854,1e-04
1.9509156118147075e-05,1.0,0.4532869756221771,0.9371111392974854,1e-04
1.9340013750479557e-05,1.0,0.45322567224502563,0.9371111392974854,1e-04
1.9728404367924668e-05,1.0,0.4520811438560486,0.9375555515289307,1e-04
1.8332819308852777e-05,1.0,0.45169931650161743,0.9377777576446533,1e-04
1.6656838852213696e-05,1.0,0.45144304633140564,0.9375555515289307,1e-04
1.7405849575879984e-05,1.0,0.45121440291404724,0.9375555515289307,1e-04
1.5948900909279473e-05,1.0,0.4508008360862732,0.9377777576446533,1e-04
1.1539205843291711e-05,1.0,0.4507487118244171,0.9380000233650208,1e-04
1.3233141544333193e-05,1.0,0.4507211744785309,0.9380000233650208,1e-04
1.6227619198616594e-05,1.0,0.4507749080657959,0.9380000233650208,1e-04
1.6392614270444028e-05,1.0,0.4510597288608551,0.9380000233650208,1e-04
1.857950701378286e-05,1.0,0.45112600922584534,0.9384444355964661,1e-04
1.4713417840539478e-05,1.0,0.45108354091644287,0.9384444355964661,1e-04
4.183488999842666e-05,1.0,0.4505055844783783,0.937333345413208,1e-04
1.9033219359698705e-05,1.0,0.45034679770469666,0.9364444613456726,1e-04
1.4074146747589111e-05,1.0,0.4506867825984955,0.9364444613456726,1e-04
2.395589581283275e-05,1.0,0.4506680369377136,0.9368888735771179,1e-04
2.4236094759544358e-05,1.0,0.4509643614292145,0.9371111392974854,1e-04
2.376317024754826e-05,1.0,0.45148319005966187,0.9380000233650208,1e-04
1.6761227016104385e-05,1.0,0.4520714282989502,0.9384444355964661,1e-04
1.5366476873168722e-05,1.0,0.4525205194950104,0.9382222294807434,1e-04
1.315234385401709e-05,1.0,0.4526149332523346,0.9384444355964661,1e-04
1.1451818863861263e-05,1.0,0.4528679847717285,0.9384444355964661,1e-04
9.15108194021741e-06,1.0,0.45277848839759827,0.9384444355964661,1e-04
1.1723263014573604e-05,1.0,0.4527810513973236,0.9384444355964661,1e-04
1.2766769032168668e-05,1.0,0.4530206024646759,0.9384444355964661,1e-04
3.792078859987669e-05,1.0,0.45240136981010437,0.937333345413208,1e-04
1.828036693041213e-05,1.0,0.45239269733428955,0.937333345413208,1e-04
1.27574494399596e-05,1.0,0.4527028203010559,0.937333345413208,1e-04
1.781824539648369e-05,1.0,0.4532020092010498,0.9371111392974854,1e-04
8.853480721882079e-06,1.0,0.45380476117134094,0.937333345413208,1e-04
2.8326399842626415e-05,1.0,0.45373842120170593,0.9359999895095825,1e-04
1.5755937056383118e-05,1.0,0.45391789078712463,0.9355555772781372,1e-04
1.0763790669443551e-05,1.0,0.4543165862560272,0.9355555772781372,1e-04
1.1818014172604308e-05,1.0,0.4545523226261139,0.9357777833938599,1e-04
1.1162667760800105e-05,1.0,0.454852819442749,0.9362221956253052,1e-04
2.1510360966203734e-05,1.0,0.45521044731140137,0.937333345413208,1e-04
1.948981844179798e-05,1.0,0.4557008445262909,0.9375555515289307,1e-04
1.414709822711302e-05,1.0,0.4562995433807373,0.9377777576446533,1e-04
1.7076798030757345e-05,1.0,0.4567386507987976,0.9377777576446533,1e-04
3.8982030673651025e-05,1.0,0.4556562900543213,0.9382222294807434,1e-04
1.1930243090318982e-05,1.0,0.4551912844181061,0.9380000233650208,1e-04
2.0257741198292933e-05,1.0,0.454960435628891,0.9380000233650208,1e-04
1.677704494795762e-05,1.0,0.45536378026008606,0.9380000233650208,1e-04
1.631464510865044e-05,1.0,0.4551980793476105,0.9380000233650208,1e-04
1.0536070476518944e-05,1.0,0.45480531454086304,0.9380000233650208,1e-04
9.117853551288135e-06,1.0,0.45485997200012207,0.9380000233650208,1e-04
1.4985783309384715e-05,1.0,0.45499634742736816,0.9380000233650208,1e-04
1.238941968040308e-05,1.0,0.45488834381103516,0.9380000233650208,1e-04
1.2673091987380758e-05,1.0,0.4549385607242584,0.9380000233650208,1e-04
1.5626965250703506e-05,1.0,0.45555126667022705,0.9380000233650208,1e-04
8.682554835104384e-06,1.0,0.45604726672172546,0.9380000233650208,1e-04
9.365267032990232e-06,1.0,0.45632264018058777,0.9380000233650208,1e-04
8.947961759986356e-06,1.0,0.4565093219280243,0.9380000233650208,1e-04
1.4436704077525064e-05,1.0,0.45648232102394104,0.9380000233650208,1e-04
2.263320129713975e-05,1.0,0.45581531524658203,0.9377777576446533,1e-04
1.841632547439076e-05,1.0,0.4560650587081909,0.9375555515289307,1e-04
1.88037047337275e-05,1.0,0.45693689584732056,0.937333345413208,1e-04
1.7700769603834487e-05,1.0,0.4564337134361267,0.937333345413208,1e-04
9.48237175180111e-06,1.0,0.45640304684638977,0.937333345413208,1e-04
1.431650343874935e-05,1.0,0.45634934306144714,0.937333345413208,1e-04
2.4867353204172105e-05,1.0,0.45645758509635925,0.937333345413208,1e-04
1.2606076779775321e-05,1.0,0.45668625831604004,0.937333345413208,1e-04
2.219517045887187e-05,1.0,0.45676159858703613,0.937333345413208,1e-04
7.016514246060979e-06,1.0,0.4568805992603302,0.937333345413208,1e-04
1.530202825961169e-05,1.0,0.4570748805999756,0.9375555515289307,1e-04
1.4040220776223578e-05,1.0,0.4567053020000458,0.937333345413208,1e-04
1.8790307876770385e-05,1.0,0.45681044459342957,0.937333345413208,1e-04
1.0610135177557822e-05,1.0,0.4570316970348358,0.937333345413208,1e-04
9.328919986728579e-06,1.0,0.457301527261734,0.9375555515289307,1e-04
1.3007913366891444e-05,1.0,0.4573734700679779,0.9375555515289307,1e-04
1.4282187294156756e-05,1.0,0.45791491866111755,0.9375555515289307,1e-04
1.2514437003119383e-05,1.0,0.4582262933254242,0.9368888735771179,1e-04
3.9079186535673216e-05,1.0,0.4585082530975342,0.9364444613456726,1e-04
1.3742776900471654e-05,1.0,0.4581235945224762,0.9355555772781372,1e-04
2.6862560844165273e-05,1.0,0.45711636543273926,0.937333345413208,1e-04
8.339268788404297e-06,1.0,0.4574683606624603,0.9377777576446533,1e-04
1.2567912563099526e-05,1.0,0.45819687843322754,0.9382222294807434,1e-04
1.2844296179537196e-05,1.0,0.4586104154586792,0.9384444355964661,1e-04
1.0971913070534356e-05,1.0,0.45839187502861023,0.9386666417121887,1e-04
1.3542018677981105e-05,1.0,0.45823898911476135,0.9384444355964661,1e-04
1.380354387947591e-05,1.0,0.4579542577266693,0.9380000233650208,1e-04
2.3010299628367648e-05,1.0,0.45778316259384155,0.9380000233650208,1e-04
1.1268733942415565e-05,1.0,0.45789796113967896,0.9377777576446533,1e-04
1.7574917364981957e-05,1.0,0.4575116038322449,0.9377777576446533,1e-04
1.6501506252097897e-05,1.0,0.45733126997947693,0.937333345413208,1e-04
8.811303814582061e-06,1.0,0.457051157951355,0.937333345413208,1e-04
1.187852740258677e-05,1.0,0.45716699957847595,0.937333345413208,1e-04
1.3128610589774325e-05,1.0,0.4576752483844757,0.937333345413208,1e-04
1.5160313523665536e-05,1.0,0.45794856548309326,0.9377777576446533,1e-04
1.702657391433604e-05,1.0,0.4569059908390045,0.9384444355964661,1e-04
1.1275015822320711e-05,1.0,0.4560384750366211,0.9388889074325562,1e-04
1.4401273801922798e-05,1.0,0.4560442268848419,0.9386666417121887,1e-04
1.403370697516948e-05,1.0,0.4561542868614197,0.9384444355964661,1e-04
1.8146305592381395e-05,1.0,0.456418514251709,0.9384444355964661,1e-04
1.7138932889793068e-05,1.0,0.45727235078811646,0.9388889074325562,1e-04
1.6054942534537986e-05,1.0,0.4576483368873596,0.9384444355964661,1e-04
8.433659786533099e-06,1.0,0.45813536643981934,0.9384444355964661,1e-04
1.1254930541326758e-05,1.0,0.4584129750728607,0.9384444355964661,1e-04
8.903104571800213e-06,1.0,0.4586162567138672,0.9382222294807434,1e-04
7.982319402799476e-06,1.0,0.45906737446784973,0.9382222294807434,1e-04
1.0105203728016932e-05,1.0,0.4593406021595001,0.9382222294807434,1e-04
1.2004086784145329e-05,1.0,0.45957648754119873,0.9382222294807434,1e-04
9.11694769456517e-06,1.0,0.45981454849243164,0.9382222294807434,1e-04
6.644354925811058e-06,1.0,0.46000728011131287,0.9382222294807434,1e-04
1.1280031685600989e-05,1.0,0.46019113063812256,0.9382222294807434,1e-04
8.903250090952497e-06,1.0,0.46053212881088257,0.9380000233650208,1e-04
9.306038009526674e-06,1.0,0.46069303154945374,0.9382222294807434,1e-04
1.342605446552625e-05,1.0,0.46107059717178345,0.9382222294807434,1e-04
7.302649919438409e-06,1.0,0.4613172709941864,0.9380000233650208,1e-04
1.2931198398291599e-05,1.0,0.46189582347869873,0.9382222294807434,1e-04
1.4533874491462484e-05,1.0,0.4624982178211212,0.9371111392974854,1e-04
1.6259959011222236e-05,1.0,0.462319552898407,0.9364444613456726,1e-04
1.0225530786556192e-05,1.0,0.4622980058193207,0.9364444613456726,1e-04
1.4893861589371227e-05,1.0,0.46211567521095276,0.9364444613456726,1e-04
1.0366834430897143e-05,1.0,0.4623245298862457,0.9364444613456726,1e-04
8.114568117889576e-06,1.0,0.4622829258441925,0.9368888735771179,1e-04
2.4672464860486798e-05,1.0,0.4623819887638092,0.9364444613456726,1e-04
1.0020143236033618e-05,1.0,0.4622710943222046,0.9353333115577698,1e-04
8.062692359089851e-06,1.0,0.4625093340873718,0.9351111054420471,1e-04
1.060094655258581e-05,1.0,0.46198561787605286,0.9355555772781372,1e-04
1.1177287888131104e-05,1.0,0.4608902931213379,0.9359999895095825,1e-04
9.821480489335954e-06,1.0,0.46052247285842896,0.9366666674613953,1e-04
1.2798076568287797e-05,1.0,0.4609384834766388,0.9371111392974854,1e-04
1.2057822459610179e-05,1.0,0.4612410068511963,0.937333345413208,1e-04
1.1495689250295982e-05,1.0,0.4617214500904083,0.9371111392974854,1e-04
1.0216522241535131e-05,1.0,0.46172747015953064,0.9377777576446533,1e-04
9.82768051471794e-06,1.0,0.4620992839336395,0.9380000233650208,1e-04
2.5173829271807335e-05,1.0,0.46086567640304565,0.9382222294807434,1e-04
8.956092642620206e-06,1.0,0.4591728448867798,0.9386666417121887,1e-04
1.2246862752363086e-05,1.0,0.4587859809398651,0.9391111135482788,1e-04
1.5685231119277887e-05,1.0,0.45879286527633667,0.9391111135482788,1e-04
1.4735278455191292e-05,1.0,0.45795899629592896,0.9386666417121887,1e-04
7.44945828046184e-06,1.0,0.45806989073753357,0.9386666417121887,1e-04
4.163717676419765e-05,1.0,0.45811837911605835,0.9371111392974854,1e-04
1.4219508557289373e-05,1.0,0.47292909026145935,0.9264444708824158,1e-04
6.210356514202431e-05,1.0,0.46160367131233215,0.941777765750885,1e-04
0.020732302218675613,0.9959999918937683,0.556740403175354,0.906000018119812,1e-04
0.028959564864635468,0.9919999837875366,0.7071079611778259,0.8657777905464172,1e-04
0.006130369380116463,1.0,0.5937634706497192,0.9095555543899536,1e-04
0.007784673478454351,0.9959999918937683,0.5862230658531189,0.9193333387374878,1e-04
0.00083541200729087,1.0,0.6063507199287415,0.9271110892295837,1e-04
0.0012792121851816773,1.0,0.5932216644287109,0.9293333292007446,1e-04
0.0005131637444719672,1.0,0.5768697261810303,0.9275555610656738,1e-04
0.00033440260449424386,1.0,0.5601757764816284,0.9277777671813965,1e-04
0.0005086050950922072,1.0,0.5506124496459961,0.9262222051620483,1e-04
0.00013308145571500063,1.0,0.5451669096946716,0.9268888831138611,1e-04
0.0001542729587526992,1.0,0.5409716367721558,0.9273333549499512,1e-04
0.00027329495060257614,1.0,0.5411666631698608,0.9255555272102356,1e-04
0.00012806637096218765,1.0,0.5380222201347351,0.9271110892295837,1e-04
0.00017505986033938825,1.0,0.5331866145133972,0.9286666512489319,1e-04
0.00024655251763761044,1.0,0.5300719141960144,0.9282222390174866,1e-04
0.00012195354065624997,1.0,0.5292131304740906,0.9275555610656738,1e-04
0.0001475614553783089,1.0,0.526520848274231,0.9277777671813965,1e-04
0.00010949016723316163,1.0,0.5217931270599365,0.9288889169692993,1e-04
0.00011649132648017257,1.0,0.5164883732795715,0.93022221326828,1e-04
9.25641434150748e-05,1.0,0.5125135779380798,0.9317777752876282,1e-04
7.689843187108636e-05,1.0,0.5093796849250793,0.9328888654708862,1e-04
0.0002625740016810596,1.0,0.5063987374305725,0.9322222471237183,1e-04
6.783525896025822e-05,1.0,0.5045071244239807,0.9317777752876282,1e-04
0.0001897768524941057,1.0,0.5032166242599487,0.9324444532394409,1e-04
0.0001166041474789381,1.0,0.5013636350631714,0.9328888654708862,1e-04
9.561681508785114e-05,1.0,0.49970725178718567,0.9342222213745117,1e-04
8.594589598942548e-05,1.0,0.4977950155735016,0.9359999895095825,1e-04
9.88346801022999e-05,1.0,0.49680429697036743,0.9362221956253052,1e-04
0.00010784803453134373,1.0,0.4969569146633148,0.9362221956253052,1e-04
6.598855543415993e-05,1.0,0.49614620208740234,0.9362221956253052,1e-04
7.389124220935628e-05,1.0,0.4955322742462158,0.9364444613456726,1e-04
7.490739517379552e-05,1.0,0.49530690908432007,0.9364444613456726,1e-04
6.952543481020257e-05,1.0,0.49457845091819763,0.9366666674613953,1e-04
9.827152825891972e-05,1.0,0.49429818987846375,0.9357777833938599,1e-04
7.824136991985142e-05,1.0,0.4943842887878418,0.9355555772781372,1e-04
4.0893744881032035e-05,1.0,0.4944341778755188,0.9355555772781372,1e-04
0.00016128114657476544,1.0,0.4946501851081848,0.9357777833938599,1e-04
5.6691085774218664e-05,1.0,0.4945235550403595,0.9362221956253052,1e-04
7.593339250888675e-05,1.0,0.49404117465019226,0.9366666674613953,1e-04
5.636052446789108e-05,1.0,0.49366292357444763,0.9371111392974854,1e-04
4.0224625990958884e-05,1.0,0.49312880635261536,0.937333345413208,1e-04
0.00011502474080771208,1.0,0.49157068133354187,0.937333345413208,1e-04
5.204914486967027e-05,1.0,0.4907769560813904,0.9375555515289307,1e-04
5.58511346753221e-05,1.0,0.49036842584609985,0.9375555515289307,1e-04
5.9808968217112124e-05,1.0,0.4903551936149597,0.9375555515289307,1e-04
7.3915311077144e-05,1.0,0.4908479154109955,0.937333345413208,1e-04
4.3817475670948625e-05,1.0,0.4912894368171692,0.937333345413208,1e-04
5.344503733795136e-05,1.0,0.4914097189903259,0.937333345413208,1e-04
6.653262971667573e-05,1.0,0.49145281314849854,0.9371111392974854,1e-04
0.0001509276044089347,1.0,0.4915567934513092,0.9348888993263245,1e-04
4.1515431803418323e-05,1.0,0.49152880907058716,0.9346666932106018,1e-04
4.068053385708481e-05,1.0,0.49153628945350647,0.9346666932106018,1e-04
5.366433833842166e-05,1.0,0.4914117753505707,0.9344444274902344,1e-04
9.974664862966165e-05,1.0,0.49115729331970215,0.9353333115577698,1e-04
5.8182846260024235e-05,1.0,0.4912349283695221,0.9355555772781372,1e-04
6.13543888903223e-05,1.0,0.4914866089820862,0.9359999895095825,1e-04
4.568842996377498e-05,1.0,0.4911993145942688,0.9364444613456726,1e-04
4.302333763916977e-05,1.0,0.4912447929382324,0.9364444613456726,1e-04
6.0839622165076435e-05,1.0,0.4911278784275055,0.9362221956253052,1e-04
7.598843512823805e-05,1.0,0.4904801547527313,0.9355555772781372,1e-04
0.000194192718481645,1.0,0.490886926651001,0.9362221956253052,1e-04
3.656867556856014e-05,1.0,0.49119818210601807,0.9364444613456726,1e-04
4.28824350819923e-05,1.0,0.49107280373573303,0.9364444613456726,1e-04
9.516294085187837e-05,1.0,0.49109289050102234,0.9366666674613953,1e-04
3.717460640473291e-05,1.0,0.4908416271209717,0.9357777833938599,1e-04
8.669602539157495e-05,1.0,0.49082064628601074,0.9340000152587891,1e-04
8.39523781905882e-05,1.0,0.49090924859046936,0.9340000152587891,1e-04
3.894649489666335e-05,1.0,0.4912812411785126,0.9346666932106018,1e-04
3.127812669845298e-05,1.0,0.49151432514190674,0.9355555772781372,1e-04
2.645407585077919e-05,1.0,0.49171972274780273,0.9355555772781372,1e-04
5.453161065815948e-05,1.0,0.49190640449523926,0.9357777833938599,1e-04
3.553572605596855e-05,1.0,0.4920254051685333,0.9357777833938599,1e-04
4.001975685241632e-05,1.0,0.49223750829696655,0.9362221956253052,1e-04
2.926168599515222e-05,1.0,0.4921540319919586,0.9366666674613953,1e-04
3.7553199945250526e-05,1.0,0.4926244020462036,0.9366666674613953,1e-04
7.032986468402669e-05,1.0,0.49301043152809143,0.9362221956253052,1e-04
5.894169953535311e-05,1.0,0.493425577878952,0.9355555772781372,1e-04
5.2325078286230564e-05,1.0,0.4930090606212616,0.9362221956253052,1e-04
6.846796168247238e-05,1.0,0.49317145347595215,0.9362221956253052,1e-04
6.211276922840625e-05,1.0,0.49331045150756836,0.9364444613456726,1e-04
5.281275662127882e-05,1.0,0.49329617619514465,0.9362221956253052,1e-04
3.3253669244004413e-05,1.0,0.49170154333114624,0.9364444613456726,1e-04
2.2024454665370286e-05,1.0,0.49118420481681824,0.9368888735771179,1e-04
2.5127043045358732e-05,1.0,0.4911472499370575,0.9371111392974854,1e-04
5.110311758471653e-05,1.0,0.49132758378982544,0.9375555515289307,1e-04
0.00021747003484051675,1.0,0.4911220669746399,0.9357777833938599,1e-04
4.430854460224509e-05,1.0,0.490596741437912,0.9355555772781372,1e-04
4.938958227285184e-05,1.0,0.4906322658061981,0.9355555772781372,1e-04
2.3837115804781206e-05,1.0,0.4906805455684662,0.9355555772781372,1e-04
0.00012772122863680124,1.0,0.49126264452934265,0.9355555772781372,1e-04
2.443831726850476e-05,1.0,0.49155962467193604,0.9346666932106018,1e-04
4.504907701630145e-05,1.0,0.4918903112411499,0.9344444274902344,1e-04
4.1412065911572427e-05,1.0,0.4921480715274811,0.9344444274902344,1e-04
4.0885850467020646e-05,1.0,0.4924405515193939,0.9351111054420471,1e-04
3.0353110560099594e-05,1.0,0.4929737448692322,0.9353333115577698,1e-04
3.521956386975944e-05,1.0,0.49323976039886475,0.9357777833938599,1e-04
2.241521178802941e-05,1.0,0.4935843050479889,0.9364444613456726,1e-04
1.8667147742235102e-05,1.0,0.49387216567993164,0.9364444613456726,1e-04
4.116796117159538e-05,1.0,0.4942024052143097,0.9364444613456726,1e-04
3.464952533249743e-05,1.0,0.4947601556777954,0.9371111392974854,1e-04
2.591657539596781e-05,1.0,0.49517419934272766,0.9371111392974854,1e-04
5.876370414625853e-05,1.0,0.4958789646625519,0.9371111392974854,1e-04
3.4349730412941426e-05,1.0,0.49626845121383667,0.937333345413208,1e-04
2.5612536774133332e-05,1.0,0.49652767181396484,0.937333345413208,1e-04
2.483136449882295e-05,1.0,0.4968879520893097,0.9375555515289307,1e-04
2.3066708308761008e-05,1.0,0.4970584809780121,0.9375555515289307,1e-04
3.9695507439319044e-05,1.0,0.49722763895988464,0.9375555515289307,1e-04
3.4600150684127584e-05,1.0,0.4974539875984192,0.9375555515289307,1e-04
1.8944323528558016e-05,1.0,0.497615784406662,0.9377777576446533,1e-04
2.7363435947336257e-05,1.0,0.4976077079772949,0.9377777576446533,1e-04
2.3635588149772957e-05,1.0,0.49771684408187866,0.9375555515289307,1e-04
6.330769247142598e-05,1.0,0.4978412687778473,0.937333345413208,1e-04
3.6530214856611565e-05,1.0,0.4975537657737732,0.9380000233650208,1e-04
3.167204704368487e-05,1.0,0.49743425846099854,0.937333345413208,1e-04
2.4760553060332313e-05,1.0,0.4974170923233032,0.937333345413208,1e-04
2.144897371181287e-05,1.0,0.4975304901599884,0.937333345413208,1e-04
6.388409383362159e-05,1.0,0.49759814143180847,0.937333345413208,1e-04
2.865817805286497e-05,1.0,0.4978291988372803,0.937333345413208,1e-04
2.3650422008358873e-05,1.0,0.49823030829429626,0.937333345413208,1e-04
2.315728306712117e-05,1.0,0.49869921803474426,0.937333345413208,1e-04
2.6186829927610233e-05,1.0,0.499024897813797,0.937333345413208,1e-04
2.3942233383422717e-05,1.0,0.4993560016155243,0.9375555515289307,1e-04
2.6313498892704956e-05,1.0,0.4996982514858246,0.9375555515289307,1e-04
2.2640499082626775e-05,1.0,0.5000308156013489,0.9375555515289307,1e-04
3.7482001062016934e-05,1.0,0.500331699848175,0.9375555515289307,1e-04
7.223755528684705e-05,1.0,0.499955415725708,0.9380000233650208,1e-04
3.0238708859542385e-05,1.0,0.4995323419570923,0.9386666417121887,1e-04
4.769007136928849e-05,1.0,0.4991997480392456,0.9386666417121887,1e-04
2.9604061637655832e-05,1.0,0.49909520149230957,0.9386666417121887,1e-04
6.614739686483517e-05,1.0,0.4994819760322571,0.9382222294807434,1e-04
3.779709732043557e-05,1.0,0.5000214576721191,0.9380000233650208,1e-04
1.6981615772238e-05,1.0,0.5003505945205688,0.9375555515289307,1e-04
2.3039850930217654e-05,1.0,0.5007954835891724,0.9375555515289307,1e-04
2.218038025603164e-05,1.0,0.5010495185852051,0.9375555515289307,1e-04
1.8193126379628666e-05,1.0,0.5011724233627319,0.9375555515289307,1e-04
2.1789490347146057e-05,1.0,0.5015650987625122,0.9375555515289307,1e-04
2.5210205421899445e-05,1.0,0.5016774535179138,0.9371111392974854,1e-04
1.4228932741389144e-05,1.0,0.5018097758293152,0.9371111392974854,1e-04
1.4857055248285178e-05,1.0,0.5019590258598328,0.9368888735771179,1e-04
2.6318994059693068e-05,1.0,0.5021948218345642,0.9368888735771179,1e-04
1.777682155079674e-05,1.0,0.5023234486579895,0.9368888735771179,1e-04
2.0537243472062983e-05,1.0,0.5025721192359924,0.9368888735771179,1e-04
2.502365350665059e-05,1.0,0.5029298067092896,0.9366666674613953,1e-04
1.8595026631373912e-05,1.0,0.5028489828109741,0.9366666674613953,1e-04
1.4052548067411408e-05,1.0,0.5028594136238098,0.9366666674613953,1e-04
1.622992567718029e-05,1.0,0.5030283331871033,0.9366666674613953,1e-04
1.4457418728852645e-05,1.0,0.5032265782356262,0.9366666674613953,1e-04
3.5052762541454285e-05,1.0,0.5027613639831543,0.9366666674613953,1e-04
2.3580085326102562e-05,1.0,0.5027327537536621,0.9366666674613953,1e-04
1.7849724827101454e-05,1.0,0.5029994249343872,0.9366666674613953,1e-04
1.872542816272471e-05,1.0,0.5032368302345276,0.9366666674613953,1e-04
3.3517346309963614e-05,1.0,0.503436803817749,0.9366666674613953,1e-04
4.563930269796401e-05,1.0,0.5041577219963074,0.9366666674613953,1e-04
3.552292037056759e-05,1.0,0.5045082569122314,0.9366666674613953,1e-04
1.8649960111360997e-05,1.0,0.5047163367271423,0.9371111392974854,1e-04
5.5798140238039196e-05,1.0,0.5048980116844177,0.9364444613456726,1e-04
1.644176518311724e-05,1.0,0.5049687027931213,0.9364444613456726,1e-04
2.8961936550331302e-05,1.0,0.505222737789154,0.9364444613456726,1e-04
5.2390161727089435e-05,1.0,0.5051908493041992,0.9375555515289307,1e-04
2.9530914616771042e-05,1.0,0.5051522850990295,0.9377777576446533,1e-04
2.242347181891091e-05,1.0,0.5050510168075562,0.9377777576446533,1e-04
2.456914444337599e-05,1.0,0.5049353241920471,0.9377777576446533,1e-04
2.2525486201629974e-05,1.0,0.504411518573761,0.9380000233650208,1e-04
2.0108293028897606e-05,1.0,0.5043535232543945,0.9382222294807434,1e-04
2.2177171558723785e-05,1.0,0.5045742988586426,0.9377777576446533,1e-04
2.6568643079372123e-05,1.0,0.5047748684883118,0.9377777576446533,1e-04
2.1855634258827195e-05,1.0,0.5048201680183411,0.9380000233650208,1e-04
1.8055307009490207e-05,1.0,0.5049664974212646,0.9380000233650208,1e-04
3.395545718376525e-05,1.0,0.5050244927406311,0.9380000233650208,1e-04
1.5653744412702508e-05,1.0,0.5047881007194519,0.9377777576446533,1e-04
1.7434733308618888e-05,1.0,0.5048040151596069,0.9377777576446533,1e-04
1.1850859664264135e-05,1.0,0.5048357844352722,0.9377777576446533,1e-04
3.2504751288797706e-05,1.0,0.5049762725830078,0.9371111392974854,1e-04
1.3159385161998216e-05,1.0,0.504956841468811,0.9364444613456726,1e-04
2.0197048797854222e-05,1.0,0.5051285624504089,0.9364444613456726,1e-04
3.35884906235151e-05,1.0,0.5050588250160217,0.9364444613456726,1e-04
1.4913313862052746e-05,1.0,0.5051814913749695,0.9359999895095825,1e-04
1.3362218851398211e-05,1.0,0.5056203603744507,0.9357777833938599,1e-04
4.69109472760465e-05,1.0,0.5055993795394897,0.9357777833938599,1e-04
2.1410851331893355e-05,1.0,0.5030847787857056,0.9359999895095825,1e-04
1.1913290109077934e-05,1.0,0.5023323893547058,0.9362221956253052,1e-04
1.3384037629293744e-05,1.0,0.5022972822189331,0.9368888735771179,1e-04
1.4553598703059833e-05,1.0,0.5026962161064148,0.9368888735771179,1e-04
2.0057192159583792e-05,1.0,0.5032817125320435,0.9368888735771179,1e-04
2.7150987079949118e-05,1.0,0.5041716694831848,0.9366666674613953,1e-04
4.097999772056937e-05,1.0,0.5047741532325745,0.9368888735771179,1e-04
1.298868482990656e-05,1.0,0.5051012635231018,0.9371111392974854,1e-04
1.8992821424035355e-05,1.0,0.5054730772972107,0.937333345413208,1e-04
1.7731374100549147e-05,1.0,0.5056988596916199,0.937333345413208,1e-04
1.3170869351597503e-05,1.0,0.5056433081626892,0.9375555515289307,1e-04
2.3281891117221676e-05,1.0,0.5057426691055298,0.9377777576446533,1e-04
1.2826910278818104e-05,1.0,0.5058876872062683,0.9377777576446533,1e-04
1.2371124284982216e-05,1.0,0.5059197545051575,0.9377777576446533,1e-04
2.0198254787828773e-05,1.0,0.5059134364128113,0.9382222294807434,1e-04
2.0412871890584938e-05,1.0,0.5058911442756653,0.9377777576446533,1e-04
2.1061998268123716e-05,1.0,0.5056048631668091,0.9380000233650208,1e-04
2.7104892069473863e-05,1.0,0.5055411458015442,0.9382222294807434,1e-04
1.7563814253662713e-05,1.0,0.5056090354919434,0.9382222294807434,1e-04
1.537291973363608e-05,1.0,0.5057225823402405,0.9380000233650208,1e-04
1.7793874576454982e-05,1.0,0.5057440996170044,0.9382222294807434,1e-04
1.5181601156655233e-05,1.0,0.506007730960846,0.9382222294807434,1e-04
1.385874111292651e-05,1.0,0.5060659646987915,0.9382222294807434,1e-04
1.5051574337121565e-05,1.0,0.5062702894210815,0.9375555515289307,1e-04
2.1992747861077078e-05,1.0,0.5069936513900757,0.9371111392974854,1e-04
1.3450013284455054e-05,1.0,0.5075747966766357,0.9368888735771179,1e-04
1.2398796570778359e-05,1.0,0.5078563690185547,0.9368888735771179,1e-04
1.598802009539213e-05,1.0,0.5081987977027893,0.9368888735771179,1e-04
1.256002451555105e-05,1.0,0.5084919333457947,0.9371111392974854,1e-04
1.614194843568839e-05,1.0,0.5086268186569214,0.9371111392974854,1e-04
1.3229500837041996e-05,1.0,0.5087664127349854,0.9371111392974854,1e-04
1.604554199730046e-05,1.0,0.5087466239929199,0.9368888735771179,1e-04
2.2428943339036778e-05,1.0,0.5089582204818726,0.9368888735771179,1e-04
1.124330265156459e-05,1.0,0.5091075301170349,0.9368888735771179,1e-04
2.3427824999089353e-05,1.0,0.5095153450965881,0.9362221956253052,1e-04
1.6636467989883386e-05,1.0,0.5096854567527771,0.9366666674613953,1e-04
2.216516077169217e-05,1.0,0.5096498727798462,0.9366666674613953,1e-04
2.5877401640173048e-05,1.0,0.5095338821411133,0.9362221956253052,1e-04
1.6312329535139725e-05,1.0,0.5097103714942932,0.9362221956253052,1e-04
1.0039635526482016e-05,1.0,0.509673535823822,0.9362221956253052,1e-04
2.3816417524358258e-05,1.0,0.5092466473579407,0.9362221956253052,1e-04
1.921929288073443e-05,1.0,0.5092062950134277,0.9362221956253052,1e-04
2.5336667022202164e-05,1.0,0.5089518427848816,0.9364444613456726,1e-04
2.2013527996023186e-05,1.0,0.5089769959449768,0.9364444613456726,1e-04
1.155937115981942e-05,1.0,0.5090570449829102,0.9364444613456726,1e-04
9.624220183468424e-06,1.0,0.509172797203064,0.9364444613456726,1e-04
1.785824861144647e-05,1.0,0.5094927549362183,0.9364444613456726,1e-04
1.4625838048232254e-05,1.0,0.5095342397689819,0.9366666674613953,1e-04
1.157583756139502e-05,1.0,0.5094459652900696,0.9368888735771179,1e-04
1.31097704070271e-05,1.0,0.509703516960144,0.9368888735771179,1e-04
1.1496813385747373e-05,1.0,0.5098878145217896,0.9368888735771179,1e-04
1.2419158338161651e-05,1.0,0.5099487900733948,0.9368888735771179,1e-04
1.0903650036198087e-05,1.0,0.5101030468940735,0.9368888735771179,1e-04
2.2780133804189973e-05,1.0,0.5103719234466553,0.9368888735771179,1e-04
1.151433025370352e-05,1.0,0.5103000998497009,0.9371111392974854,1e-04
1.8505881598684937e-05,1.0,0.5106198191642761,0.937333345413208,1e-04
3.1525458325631917e-05,1.0,0.5111544728279114,0.9375555515289307,1e-04
1.4835275578661822e-05,1.0,0.5114060044288635,0.9377777576446533,1e-04
1.3667222447111271e-05,1.0,0.5115789771080017,0.9377777576446533,1e-04
2.281858178321272e-05,1.0,0.5115700364112854,0.9375555515289307,1e-04
2.057110032183118e-05,1.0,0.5113785266876221,0.937333345413208,1e-04
1.1057712072215509e-05,1.0,0.5113831162452698,0.9371111392974854,1e-04
1.481174422224285e-05,1.0,0.511444091796875,0.937333345413208,1e-04
1.5206350326479878e-05,1.0,0.5113954544067383,0.9377777576446533,1e-04
1.649741352593992e-05,1.0,0.511741042137146,0.9377777576446533,1e-04
1.0952003322017845e-05,1.0,0.5120126605033875,0.9377777576446533,1e-04
9.462080925004557e-06,1.0,0.5120665431022644,0.9377777576446533,1e-04
1.3434687389235478e-05,1.0,0.5121729969978333,0.9377777576446533,1e-04
1.2718508514808491e-05,1.0,0.512307345867157,0.9377777576446533,1e-04
1.7230175217264332e-05,1.0,0.5124812722206116,0.9377777576446533,1e-04
1.0119999387825374e-05,1.0,0.5125518441200256,0.9375555515289307,1e-04
2.5164948965539224e-05,1.0,0.5126177668571472,0.937333345413208,1e-04
1.3975987712910865e-05,1.0,0.5127134323120117,0.9368888735771179,1e-04
1.3815332749800291e-05,1.0,0.5128254294395447,0.9368888735771179,1e-04
1.1212528988835402e-05,1.0,0.5129076838493347,0.9368888735771179,1e-04
1.3498047337634489e-05,1.0,0.5131776928901672,0.9371111392974854,1e-04
2.120460703736171e-05,1.0,0.5134882926940918,0.937333345413208,1e-04
1.0433877832838334e-05,1.0,0.5136675238609314,0.9375555515289307,1e-04
9.897589734464418e-06,1.0,0.5137845277786255,0.9375555515289307,1e-04
1.5672907466068864e-05,1.0,0.5137402415275574,0.9371111392974854,1e-04
1.2575443179230206e-05,1.0,0.5137484669685364,0.937333345413208,1e-04
9.399358532391489e-06,1.0,0.5138469338417053,0.937333345413208,1e-04
2.5341880245832726e-05,1.0,0.5138974189758301,0.9368888735771179,1e-04
1.8854343579732813e-05,1.0,0.5140480399131775,0.9366666674613953,1e-04
1.0345380360377021e-05,1.0,0.5142828226089478,0.9366666674613953,1e-04
1.4914214261807501e-05,1.0,0.5144332051277161,0.9366666674613953,1e-04
6.82481049807393e-06,1.0,0.5144710540771484,0.9366666674613953,1e-04
1.3530780051951297e-05,1.0,0.5143522024154663,0.9366666674613953,1e-04
1.607703961781226e-05,1.0,0.5141979455947876,0.9364444613456726,1e-04
1.2533817425719462e-05,1.0,0.5143355131149292,0.9364444613456726,1e-04
1.0539865797909442e-05,1.0,0.5144561529159546,0.9366666674613953,1e-04
1.1642176104942337e-05,1.0,0.5146927237510681,0.9366666674613953,1e-04
7.2505013122281525e-06,1.0,0.5148296356201172,0.9364444613456726,1e-04
1.2530889762274455e-05,1.0,0.5149208903312683,0.9366666674613953,1e-04
1.2575186701724306e-05,1.0,0.5147430300712585,0.9366666674613953,1e-04
8.015022103791125e-06,1.0,0.5147268176078796,0.9366666674613953,1e-04
1.6309160855598748e-05,1.0,0.5148653984069824,0.9366666674613953,1e-04
1.3394578672887292e-05,1.0,0.514818012714386,0.9371111392974854,1e-04
1.1026838365069125e-05,1.0,0.5149180293083191,0.9371111392974854,1e-04
8.641198292025365e-06,1.0,0.5148884654045105,0.937333345413208,1e-04
7.839050340407994e-06,1.0,0.5149158835411072,0.937333345413208,1e-04
7.973687388584949e-06,1.0,0.5150373578071594,0.9375555515289307,1e-04
6.83930238665198e-06,1.0,0.5151817202568054,0.9375555515289307,1e-04
1.0501131328055635e-05,1.0,0.5154597759246826,0.9375555515289307,1e-04
2.6402429284644313e-05,1.0,0.5159555077552795,0.9368888735771179,1e-04
1.0616082363412715e-05,1.0,0.5161852836608887,0.9366666674613953,1e-04
6.922682587173767e-06,1.0,0.5161694884300232,0.9366666674613953,1e-04
1.1581563740037382e-05,1.0,0.5163053274154663,0.9366666674613953,1e-04
1.2923668691655621e-05,1.0,0.5164063572883606,0.9366666674613953,1e-04
9.759979548107367e-06,1.0,0.516459047794342,0.9366666674613953,1e-04
1.7848875359049998e-05,1.0,0.5164339542388916,0.937333345413208,1e-04
1.6031883205869235e-05,1.0,0.5167092084884644,0.9375555515289307,1e-04
1.0160130841541104e-05,1.0,0.5167664885520935,0.9368888735771179,1e-04
9.285677151638083e-06,1.0,0.51695716381073,0.9366666674613953,1e-04
8.625111149740405e-06,1.0,0.5172387361526489,0.9366666674613953,1e-04
1.3162760296836495e-05,1.0,0.5174641609191895,0.9366666674613953,1e-04
1.535338924441021e-05,1.0,0.5176380276679993,0.9366666674613953,1e-04
9.004757885122672e-06,1.0,0.5175559520721436,0.9368888735771179,1e-04
1.0989164366037585e-05,1.0,0.5175508856773376,0.9368888735771179,1e-04
1.174231874756515e-05,1.0,0.5176780223846436,0.9375555515289307,1e-04
8.520536539435852e-06,1.0,0.5176993608474731,0.9375555515289307,1e-04
1.3096059774397872e-05,1.0,0.5178328156471252,0.9375555515289307,1e-04
1.025924848363502e-05,1.0,0.5178216099739075,0.937333345413208,1e-04
1.0008234312408604e-05,1.0,0.5179967880249023,0.9371111392974854,1e-04
9.95204936771188e-06,1.0,0.517930805683136,0.9368888735771179,1e-04
1.2807259736291599e-05,1.0,0.5176317095756531,0.9375555515289307,1e-04
1.2209832675580401e-05,1.0,0.5175908207893372,0.937333345413208,1e-04
1.622139461687766e-05,1.0,0.517589271068573,0.9368888735771179,1e-04
8.210406122088898e-06,1.0,0.5176357626914978,0.9368888735771179,1e-04
1.924928255903069e-05,1.0,0.5169809460639954,0.9371111392974854,1e-04
9.152545317192562e-06,1.0,0.516844630241394,0.937333345413208,1e-04
9.390152627020143e-06,1.0,0.5169481039047241,0.9371111392974854,1e-04
9.377246897201985e-06,1.0,0.5169907808303833,0.9371111392974854,1e-04
1.4722106243425515e-05,1.0,0.5175706744194031,0.9371111392974854,1e-04
9.144995601673145e-06,1.0,0.5179555416107178,0.9371111392974854,1e-04
1.5848849216126837e-05,1.0,0.5181661248207092,0.9377777576446533,1e-04
2.4318842406501062e-05,1.0,0.5170986652374268,0.9375555515289307,1e-04
8.425143278145697e-06,1.0,0.5169024467468262,0.9375555515289307,1e-04
9.996741937357001e-06,1.0,0.51700758934021,0.9375555515289307,1e-04
5.616574526356999e-06,1.0,0.5171268582344055,0.937333345413208,1e-04
7.915959031379316e-06,1.0,0.5172622799873352,0.937333345413208,1e-04
7.124614967324305e-06,1.0,0.5174679756164551,0.937333345413208,1e-04
6.890616532473359e-06,1.0,0.5178206562995911,0.9371111392974854,1e-04
2.4096545530483127e-05,1.0,0.5182482600212097,0.937333345413208,1e-04
2.5093137082876638e-05,1.0,0.5182999968528748,0.9377777576446533,1e-04
9.002652404888067e-06,1.0,0.5186139941215515,0.9380000233650208,1e-04
9.360806870972738e-06,1.0,0.5187153816223145,0.9377777576446533,1e-04
4.514222018769942e-05,1.0,0.5180034637451172,0.9359999895095825,1e-04
9.126913028012495e-06,1.0,0.5181150436401367,0.9362221956253052,1e-04
8.36181607155595e-06,1.0,0.518452525138855,0.9362221956253052,1e-04
1.4130459021544084e-05,1.0,0.5189741253852844,0.9359999895095825,1e-04
1.9371367670828477e-05,1.0,0.5190907716751099,0.9359999895095825,1e-04
8.771728971623816e-06,1.0,0.5191285014152527,0.9362221956253052,1e-04
5.872325345990248e-06,1.0,0.5192930698394775,0.9362221956253052,1e-04
8.8191727627418e-06,1.0,0.5194190740585327,0.9359999895095825,1e-04
8.398364116146695e-06,1.0,0.5195919871330261,0.9359999895095825,1e-04
7.915410606074147e-06,1.0,0.5197152495384216,0.9359999895095825,1e-04
9.27204564504791e-06,1.0,0.5200992226600647,0.9359999895095825,1e-04
8.758509466133546e-06,1.0,0.520542323589325,0.9359999895095825,1e-04
5.800144208478741e-06,1.0,0.5207383632659912,0.9359999895095825,1e-04
1.1648331565083936e-05,1.0,0.5209589004516602,0.9359999895095825,1e-04
8.144353159877937e-06,1.0,0.5209356546401978,0.9357777833938599,1e-04
7.65445929573616e-06,1.0,0.520946741104126,0.9362221956253052,1e-04
1.2075323866156396e-05,1.0,0.5211994647979736,0.9359999895095825,1e-04
1.1525704394443892e-05,1.0,0.5212444067001343,0.9359999895095825,1e-04
1.1668256775010377e-05,1.0,0.5214195251464844,0.9357777833938599,1e-04
2.2037698727217503e-05,1.0,0.5210199952125549,0.9359999895095825,1e-04
1.2319566849328112e-05,1.0,0.5206271409988403,0.9362221956253052,1e-04
2.5420731617487036e-05,1.0,0.5210801959037781,0.9359999895095825,1e-04
4.971664111508289e-06,1.0,0.5212618112564087,0.9362221956253052,1e-04
1.0217533599643502e-05,1.0,0.5213756561279297,0.9362221956253052,1e-04
1.569251253386028e-05,1.0,0.5217630863189697,0.9359999895095825,1e-04
6.029367341398029e-06,1.0,0.5219468474388123,0.9359999895095825,1e-04
6.150590252218535e-06,1.0,0.5220286250114441,0.9359999895095825,1e-04
7.12550991011085e-06,1.0,0.5221688747406006,0.9357777833938599,1e-04
8.08475579106016e-06,1.0,0.5223157405853271,0.9357777833938599,1e-04
1.4665673916169908e-05,1.0,0.5225287079811096,0.9366666674613953,1e-04
9.226855581800919e-06,1.0,0.5227716565132141,0.9366666674613953,1e-04
1.2359914762782864e-05,1.0,0.523224413394928,0.9364444613456726,1e-04
9.56681469688192e-06,1.0,0.5233296751976013,0.9364444613456726,1e-04
8.786567377683241e-06,1.0,0.5234222412109375,0.9364444613456726,1e-04
6.30095519227325e-06,1.0,0.5234785079956055,0.9364444613456726,1e-04
9.066838174476288e-06,1.0,0.5234833359718323,0.9364444613456726,1e-04
9.266052074963227e-06,1.0,0.5234671235084534,0.9364444613456726,1e-04
1.2544437595352065e-05,1.0,0.5238099098205566,0.9359999895095825,1e-04
5.845651685376652e-06,1.0,0.523952305316925,0.9357777833938599,1e-04
6.06283037996036e-06,1.0,0.5241478085517883,0.9357777833938599,1e-04
7.863464816182386e-06,1.0,0.5244267582893372,0.9357777833938599,1e-04
8.442261787422467e-06,1.0,0.5246380567550659,0.9359999895095825,1e-04
1.0951321200991515e-05,1.0,0.5249349474906921,0.9364444613456726,1e-04
8.856758540787268e-06,1.0,0.5247316360473633,0.9366666674613953,1e-04
7.412143531837501e-06,1.0,0.5246900320053101,0.9366666674613953,1e-04
9.021714504342526e-06,1.0,0.5243902206420898,0.9368888735771179,1e-04
8.157066986314021e-06,1.0,0.5245081782341003,0.9368888735771179,1e-04
1.1156352229590993e-05,1.0,0.5246474742889404,0.9371111392974854,1e-04
9.850827154878061e-06,1.0,0.5248017907142639,0.9368888735771179,1e-04
1.5762563634780236e-05,1.0,0.5246567130088806,0.9364444613456726,1e-04
5.89496448810678e-06,1.0,0.5241550803184509,0.9364444613456726,1e-04
1.2038541171932593e-05,1.0,0.5239422917366028,0.9362221956253052,1e-04
8.440371857432183e-06,1.0,0.5241034626960754,0.9362221956253052,1e-04
1.0222463970421813e-05,1.0,0.5242825746536255,0.9362221956253052,1e-04
7.37450000087847e-06,1.0,0.5248715877532959,0.9362221956253052,1e-04
8.069465366133954e-06,1.0,0.5251631140708923,0.9362221956253052,1e-04
6.587275038327789e-06,1.0,0.5253258347511292,0.9362221956253052,1e-04
4.311959855840541e-06,1.0,0.5255080461502075,0.9362221956253052,1e-04
1.5976511349435896e-05,1.0,0.5257589221000671,0.9364444613456726,1e-04
8.860411071509589e-06,1.0,0.525884747505188,0.9364444613456726,1e-04
1.322707612416707e-05,1.0,0.5257577300071716,0.9364444613456726,1e-04
2.8193515390739776e-05,1.0,0.5273222923278809,0.9359999895095825,1e-04
9.736662832438014e-06,1.0,0.5279188752174377,0.9357777833938599,1e-04
1.2430349670466967e-05,1.0,0.5282805562019348,0.9357777833938599,1e-04
1.076361513696611e-05,1.0,0.527990460395813,0.9357777833938599,1e-04
1.0840867616934702e-05,1.0,0.5279011130332947,0.9359999895095825,1e-04
1.5329003872466274e-05,1.0,0.5280506610870361,0.9359999895095825,1e-04
6.1453420130419545e-06,1.0,0.5281667709350586,0.9359999895095825,1e-04
1.2715598131762818e-05,1.0,0.5282143950462341,0.9359999895095825,1e-04
8.503363460476976e-06,1.0,0.5283840894699097,0.9359999895095825,1e-04
1.1272876690782141e-05,1.0,0.5282705426216125,0.9359999895095825,1e-04
9.884153769235127e-06,1.0,0.5284310579299927,0.9359999895095825,1e-04
5.85202724323608e-06,1.0,0.5285243391990662,0.9362221956253052,1e-04
8.893547601473983e-06,1.0,0.5285723805427551,0.9362221956253052,1e-04
7.350961823249236e-06,1.0,0.5287521481513977,0.9359999895095825,1e-04
5.708603566745296e-06,1.0,0.5290176272392273,0.9359999895095825,1e-04
5.576422154263128e-06,1.0,0.5291228294372559,0.9359999895095825,1e-04
8.483483725285623e-06,1.0,0.5286692380905151,0.9359999895095825,1e-04
9.405594937561546e-06,1.0,0.528717041015625,0.9359999895095825,1e-04
6.58348471915815e-06,1.0,0.5290673971176147,0.9359999895095825,1e-04
6.0070065046602394e-06,1.0,0.5292714834213257,0.9359999895095825,1e-04
5.153491656528786e-06,1.0,0.5294075608253479,0.9359999895095825,1e-04
6.777342605346348e-06,1.0,0.5296750068664551,0.9359999895095825,1e-04
1.887661164801102e-05,1.0,0.5301518440246582,0.9362221956253052,1e-04
8.979694939625915e-06,1.0,0.5303748250007629,0.9364444613456726,1e-04
5.794640856038313e-06,1.0,0.530235767364502,0.9366666674613953,1e-04
4.181063559371978e-06,1.0,0.530179500579834,0.9366666674613953,1e-04
6.282731646933826e-06,1.0,0.5302521586418152,0.9368888735771179,1e-04
4.523414190771291e-06,1.0,0.5301963686943054,0.9368888735771179,1e-04
1.7287571608903818e-05,1.0,0.529848039150238,0.9364444613456726,1e-04
1.3407454389380291e-05,1.0,0.5273443460464478,0.9368888735771179,1e-04
6.36843924439745e-06,1.0,0.5264120101928711,0.9368888735771179,1e-04
1.284472455154173e-05,1.0,0.5263204574584961,0.9366666674613953,1e-04
4.9020432015822735e-06,1.0,0.5264232754707336,0.9366666674613953,1e-04
8.520497431163676e-06,1.0,0.5268398523330688,0.9366666674613953,1e-04
5.61438992008334e-06,1.0,0.5273871421813965,0.9366666674613953,1e-04
5.179099844099255e-06,1.0,0.5278825163841248,0.9366666674613953,1e-04
6.1213659137138166e-06,1.0,0.5282679200172424,0.9368888735771179,1e-04
4.309587893658318e-06,1.0,0.5285882949829102,0.9368888735771179,1e-04
6.99542079019011e-06,1.0,0.5289416313171387,0.9366666674613953,1e-04
7.595841452712193e-06,1.0,0.5291067361831665,0.9366666674613953,1e-04
5.605229944194434e-06,1.0,0.5293418765068054,0.9366666674613953,1e-04
5.2256968956498895e-06,1.0,0.5295756459236145,0.9368888735771179,1e-04
6.933931672392646e-06,1.0,0.5299115180969238,0.9368888735771179,1e-04
6.551968908752315e-06,1.0,0.5303637981414795,0.9368888735771179,1e-04
5.192851858737413e-06,1.0,0.5306663513183594,0.9368888735771179,1e-04
2.0481815226958133e-05,1.0,0.5321142673492432,0.9371111392974854,1e-04
8.220859854191076e-06,1.0,0.5329674482345581,0.9368888735771179,1e-04
3.6859107694908744e-06,1.0,0.5332879424095154,0.9371111392974854,1e-04
4.332002845330862e-06,1.0,0.5333953499794006,0.9375555515289307,1e-04
6.7593414314615075e-06,1.0,0.5334793329238892,0.9375555515289307,1e-04
1.5752302715554833e-05,1.0,0.5320998430252075,0.9382222294807434,1e-04
7.358634320553392e-06,1.0,0.5317181348800659,0.9377777576446533,1e-04
6.199124072736595e-06,1.0,0.531808078289032,0.9377777576446533,1e-04
5.041663371230243e-06,1.0,0.531852662563324,0.9382222294807434,1e-04
4.851598077948438e-06,1.0,0.5316382646560669,0.9384444355964661,1e-04
1.00791785371257e-05,1.0,0.5314698219299316,0.9384444355964661,1e-04
1.919974783959333e-05,1.0,0.5304238796234131,0.9382222294807434,1e-04
4.607535174727673e-06,1.0,0.5289601683616638,0.9382222294807434,1e-04
5.38423182661063e-06,1.0,0.5285660624504089,0.9382222294807434,1e-04
4.8615174819133244e-06,1.0,0.5285818576812744,0.9382222294807434,1e-04
4.175304184173001e-06,1.0,0.5288573503494263,0.9382222294807434,1e-04
4.9146678975375835e-06,1.0,0.5291034579277039,0.9382222294807434,1e-04
5.589149168372387e-06,1.0,0.5293436050415039,0.9380000233650208,1e-04
7.520960025431123e-06,1.0,0.5299810171127319,0.9375555515289307,1e-04
3.244840172555996e-06,1.0,0.5303109288215637,0.9377777576446533,1e-04
5.312234407028882e-06,1.0,0.530532956123352,0.937333345413208,1e-04
1.123039055528352e-05,1.0,0.5306299328804016,0.937333345413208,1e-04
1.3460717127600219e-05,1.0,0.5308238863945007,0.937333345413208,1e-04
7.4890181167575065e-06,1.0,0.5310112833976746,0.9377777576446533,1e-04
1.3986556950840168e-05,1.0,0.5310315489768982,0.9384444355964661,1e-04
5.973548923066119e-06,1.0,0.5312156081199646,0.9384444355964661,1e-04
1.919571695907507e-05,1.0,0.530045747756958,0.9362221956253052,1e-04
3.7750075989606557e-06,1.0,0.5295165181159973,0.9359999895095825,1e-04
4.9475434025225695e-06,1.0,0.5296869277954102,0.9357777833938599,1e-04
9.231656804331578e-06,1.0,0.5297714471817017,0.9359999895095825,1e-04
7.136106887628557e-06,1.0,0.5298597812652588,0.9359999895095825,1e-04
6.662132818746613e-06,1.0,0.5300269722938538,0.9359999895095825,1e-04
3.083181582042016e-06,1.0,0.5302600860595703,0.9362221956253052,1e-04
6.401724021998234e-06,1.0,0.5304335355758667,0.9364444613456726,1e-04
4.040410658490146e-06,1.0,0.5306739211082458,0.9364444613456726,1e-04
1.6740295905037783e-05,1.0,0.5310459733009338,0.9364444613456726,1e-04
4.980242465535412e-06,1.0,0.5312381982803345,0.9362221956253052,1e-04
6.862778263894143e-06,1.0,0.5319409370422363,0.9362221956253052,1e-04
1.0618884516588878e-05,1.0,0.5319545269012451,0.9362221956253052,1e-04
3.3566229831194505e-06,1.0,0.5317020416259766,0.9362221956253052,1e-04
9.982420124288183e-06,1.0,0.5319234728813171,0.9362221956253052,1e-04
5.093548224976985e-06,1.0,0.532162606716156,0.9362221956253052,1e-04
7.697797627770342e-06,1.0,0.5325742959976196,0.9366666674613953,1e-04
4.173873549007112e-06,1.0,0.5330594182014465,0.9366666674613953,1e-04
4.535813786787912e-06,1.0,0.5332344770431519,0.9366666674613953,1e-04
7.052912224025931e-06,1.0,0.5333135724067688,0.9366666674613953,1e-04
8.004470146261156e-06,1.0,0.5334146022796631,0.9366666674613953,1e-04
3.825346084340708e-06,1.0,0.5334783792495728,0.9366666674613953,1e-04
4.404940682434244e-06,1.0,0.5334594249725342,0.9371111392974854,1e-04
5.955763299425598e-06,1.0,0.5333974361419678,0.9371111392974854,1e-04
9.796262020245194e-06,1.0,0.533092200756073,0.937333345413208,1e-04
6.43182920612162e-06,1.0,0.533381462097168,0.937333345413208,1e-04
6.004114766255952e-06,1.0,0.5336345434188843,0.9371111392974854,1e-04
1.0367905815655831e-05,1.0,0.5336819291114807,0.937333345413208,1e-04
5.697598226106493e-06,1.0,0.5338918566703796,0.9375555515289307,1e-04
3.7776646877318854e-06,1.0,0.5338606834411621,0.9375555515289307,1e-04
6.284958544711117e-06,1.0,0.5337992906570435,0.9377777576446533,1e-04
8.008434633666184e-06,1.0,0.5336069464683533,0.9377777576446533,1e-04
2.4857333755790023e-06,1.0,0.5334435701370239,0.9380000233650208,1e-04
4.426865416462533e-06,1.0,0.5335010886192322,0.9382222294807434,1e-04
3.439372676439234e-06,1.0,0.5334740877151489,0.9384444355964661,1e-04
5.377291927288752e-06,1.0,0.533303439617157,0.9386666417121887,1e-04
3.3559349503775593e-06,1.0,0.5332918763160706,0.9384444355964661,1e-04
3.4589099868753692e-06,1.0,0.5333783030509949,0.9384444355964661,1e-04
5.811881237605121e-06,1.0,0.5334125757217407,0.9384444355964661,1e-04
4.60114688394242e-06,1.0,0.5337152481079102,0.9382222294807434,1e-04
5.575690465775551e-06,1.0,0.5331191420555115,0.9380000233650208,1e-04
8.691811672179028e-06,1.0,0.5329499840736389,0.9380000233650208,1e-04
2.6299633191229077e-06,1.0,0.5326990485191345,0.9384444355964661,1e-04
5.26583335158648e-06,1.0,0.5328295826911926,0.9384444355964661,1e-04
6.011459845467471e-06,1.0,0.5329769253730774,0.9382222294807434,1e-04
4.387310582387727e-06,1.0,0.5331993699073792,0.9382222294807434,1e-04
5.167105427972274e-06,1.0,0.5333508849143982,0.9384444355964661,1e-04
6.19692082182155e-06,1.0,0.5336348414421082,0.9382222294807434,1e-04
3.7993713704054244e-06,1.0,0.5339545607566833,0.9382222294807434,1e-04
2.2506551431433763e-06,1.0,0.5341979265213013,0.9380000233650208,1e-04
1.126842380472226e-05,1.0,0.5342623591423035,0.9382222294807434,1e-04
3.3816918403317686e-06,1.0,0.5321457386016846,0.9388889074325562,1e-04
1.2965300811629277e-05,1.0,0.5315298438072205,0.9388889074325562,1e-04
1.4398984603758436e-05,1.0,0.530764639377594,0.9382222294807434,1e-04
9.137456800090149e-06,1.0,0.5311069488525391,0.9371111392974854,1e-04
5.723054073314415e-06,1.0,0.5317466259002686,0.9371111392974854,1e-04
5.242433871899266e-06,1.0,0.5322362780570984,0.9371111392974854,1e-04
2.9012965114816325e-06,1.0,0.5328867435455322,0.9366666674613953,1e-04
5.083889391244156e-06,1.0,0.5335937738418579,0.9364444613456726,1e-04
4.218645244691288e-06,1.0,0.5339093208312988,0.9364444613456726,1e-04
1.2820190931961406e-05,1.0,0.5341917872428894,0.9364444613456726,1e-04
2.311927119080792e-06,1.0,0.5345981121063232,0.9364444613456726,1e-04
4.124760380364023e-06,1.0,0.5344408750534058,0.9364444613456726,1e-04
3.6880121569993207e-06,1.0,0.5343608260154724,0.9366666674613953,1e-04
1.255965526070213e-05,1.0,0.5346085429191589,0.9368888735771179,1e-04
3.9335932342510205e-06,1.0,0.5349836349487305,0.9375555515289307,1e-04
3.2708155686123064e-06,1.0,0.535305380821228,0.9377777576446533,1e-04
8.760497621551622e-06,1.0,0.5356970429420471,0.9375555515289307,1e-04
7.3809869718388654e-06,1.0,0.53586345911026,0.9375555515289307,1e-04
2.909148179242038e-06,1.0,0.5358213186264038,0.9371111392974854,1e-04
4.662752871809062e-06,1.0,0.535486102104187,0.937333345413208,1e-04
6.310143362497911e-06,1.0,0.5353913307189941,0.9371111392974854,1e-04
2.194864237026195e-06,1.0,0.5355314612388611,0.937333345413208,1e-04
5.64406127523398e-06,1.0,0.5357925295829773,0.937333345413208,1e-04
8.689176866027992e-06,1.0,0.53595370054245,0.9368888735771179,1e-04
8.84397013578564e-06,1.0,0.5359760522842407,0.9368888735771179,1e-04
2.4859630229912e-06,1.0,0.5360286831855774,0.9368888735771179,1e-04
4.441166765900562e-06,1.0,0.5361592769622803,0.9366666674613953,1e-04
5.149453045305563e-06,1.0,0.5363261103630066,0.9368888735771179,1e-04
2.2191836706042523e-06,1.0,0.5364922285079956,0.9371111392974854,1e-04
6.962834959267639e-06,1.0,0.5368823409080505,0.937333345413208,1e-04
2.7014946226699976e-06,1.0,0.5369706749916077,0.937333345413208,1e-04
5.380632501328364e-06,1.0,0.5371747612953186,0.9371111392974854,1e-04
4.486456418817397e-06,1.0,0.5374038219451904,0.9368888735771179,1e-04
3.3349383556924295e-06,1.0,0.5376092791557312,0.9368888735771179,1e-04
4.804139734915225e-06,1.0,0.5377397537231445,0.937333345413208,1e-04
2.8013942028337624e-06,1.0,0.5379053354263306,0.937333345413208,1e-04
4.62890511698788e-06,1.0,0.5380756855010986,0.9371111392974854,1e-04
7.0369337663578335e-06,1.0,0.5382971167564392,0.9375555515289307,1e-04
6.990263045736356e-06,1.0,0.5385242700576782,0.937333345413208,1e-04
1.3043391845712904e-05,1.0,0.5383579134941101,0.9371111392974854,1e-04
5.913395398238208e-06,1.0,0.537964403629303,0.9355555772781372,1e-04
4.452788743947167e-06,1.0,0.5382084846496582,0.9355555772781372,1e-04
2.8702836516458774e-06,1.0,0.5382540822029114,0.9357777833938599,1e-04
3.5797743294097017e-06,1.0,0.5385667085647583,0.9357777833938599,1e-04
4.349590653873747e-06,1.0,0.5388484597206116,0.9357777833938599,1e-04
4.239230293023866e-06,1.0,0.538588285446167,0.9357777833938599,1e-04
3.569731688912725e-06,1.0,0.5385085344314575,0.9355555772781372,1e-04
3.791257768170908e-06,1.0,0.5385820865631104,0.9355555772781372,1e-04
1.0354176993132569e-05,1.0,0.5390100479125977,0.9357777833938599,1e-04
3.4207935186714167e-06,1.0,0.5397814512252808,0.9355555772781372,1e-04
2.3119216621125815e-06,1.0,0.5402786731719971,0.9357777833938599,1e-04
2.7236435471422737e-06,1.0,0.5407864451408386,0.9357777833938599,1e-04
3.5754928831011057e-06,1.0,0.5411124229431152,0.9359999895095825,1e-04
1.9340427570568863e-06,1.0,0.5411049127578735,0.9359999895095825,1e-04
4.146283117734129e-06,1.0,0.5415135025978088,0.9362221956253052,1e-04
2.953335979327676e-06,1.0,0.5413369536399841,0.9362221956253052,1e-04
4.951341452397173e-06,1.0,0.5411186814308167,0.9362221956253052,1e-04
1.7747771607901086e-06,1.0,0.5411617159843445,0.9362221956253052,1e-04
4.621631433110451e-06,1.0,0.541310727596283,0.9362221956253052,1e-04
4.7512871788057964e-06,1.0,0.5414643287658691,0.9362221956253052,1e-04
4.9343821046932135e-06,1.0,0.5411882996559143,0.9362221956253052,1e-04
4.964604158885777e-06,1.0,0.5405134558677673,0.9359999895095825,1e-04
1.9862525277858367e-06,1.0,0.5400441288948059,0.9364444613456726,1e-04
6.257292170630535e-06,1.0,0.5397365689277649,0.9366666674613953,1e-04
3.4374650113022653e-06,1.0,0.5400683879852295,0.9366666674613953,1e-04
3.09868619297049e-06,1.0,0.5401530861854553,0.9366666674613953,1e-04
3.370455488038715e-06,1.0,0.540287435054779,0.9368888735771179,1e-04
1.827882806537673e-05,1.0,0.5413733124732971,0.9362221956253052,1e-04
4.847824129683431e-06,1.0,0.5419018864631653,0.9357777833938599,1e-04
2.269251808684203e-06,1.0,0.5422608256340027,0.9353333115577698,1e-04
4.864491529588122e-06,1.0,0.5426842570304871,0.9353333115577698,1e-04
5.954111202299828e-06,1.0,0.5433727502822876,0.9353333115577698,1e-04
3.000203378178412e-06,1.0,0.543708086013794,0.9357777833938599,1e-04
3.3783558137656655e-06,1.0,0.5441018342971802,0.9357777833938599,1e-04
2.693851683943649e-06,1.0,0.5446632504463196,0.9357777833938599,1e-04
2.5698852823552443e-06,1.0,0.5447948575019836,0.9357777833938599,1e-04
