loss,accuracy,val_loss,val_accuracy,lr
1.588172435760498,0.3240000009536743,1.525973916053772,0.5275555849075317,0.001
1.5378596782684326,0.34599998593330383,1.4718668460845947,0.5624444484710693,0.001
1.4646282196044922,0.414000004529953,1.4220484495162964,0.5717777609825134,0.001
1.4257687330245972,0.44600000977516174,1.374815821647644,0.5755555629730225,0.001
1.3916077613830566,0.47600001096725464,1.3290469646453857,0.5799999833106995,0.001
1.3281093835830688,0.492000013589859,1.2852765321731567,0.5864444375038147,0.001
1.2916456460952759,0.5440000295639038,1.244336485862732,0.5937777757644653,0.001
1.2413554191589355,0.5879999995231628,1.204922080039978,0.602222204208374,0.001
1.2317683696746826,0.5920000076293945,1.168047308921814,0.6106666922569275,0.001
1.2116825580596924,0.5979999899864197,1.1326392889022827,0.6153333187103271,0.001
1.1393063068389893,0.6539999842643738,1.098892092704773,0.6202222108840942,0.001
1.1320043802261353,0.6240000128746033,1.0658974647521973,0.6282222270965576,0.001
1.0913937091827393,0.6480000019073486,1.0345295667648315,0.6424444317817688,0.001
1.077106237411499,0.6600000262260437,1.0050493478775024,0.6631110906600952,0.001
1.0390337705612183,0.6899999976158142,0.9759500622749329,0.6868888735771179,0.001
1.0040127038955688,0.6859999895095825,0.9489871859550476,0.7137777805328369,0.001
1.0030328035354614,0.6919999718666077,0.9228191375732422,0.7464444637298584,0.001
0.9644217491149902,0.6959999799728394,0.8975931406021118,0.7764444351196289,0.001
0.949410080909729,0.7059999704360962,0.8739145994186401,0.7984444499015808,0.001
0.9223138093948364,0.7239999771118164,0.8507608771324158,0.8162222504615784,0.001
0.8968731760978699,0.7279999852180481,0.8289419412612915,0.8333333134651184,0.001
0.8766797780990601,0.7440000176429749,0.8075605034828186,0.846666693687439,0.001
0.8725154399871826,0.7540000081062317,0.7869999408721924,0.8560000061988831,0.001
0.8469427824020386,0.7760000228881836,0.7672880291938782,0.8659999966621399,0.001
0.8273839354515076,0.7639999985694885,0.7484708428382874,0.8731111288070679,0.001
0.8052746057510376,0.7839999794960022,0.7304927706718445,0.8782222270965576,0.001
0.790145993232727,0.7940000295639038,0.7132399082183838,0.8833333253860474,0.001
0.7756515145301819,0.7839999794960022,0.696419894695282,0.8875555396080017,0.001
0.7626331448554993,0.8040000200271606,0.6806209683418274,0.8897777795791626,0.001
0.7321282029151917,0.8259999752044678,0.6658159494400024,0.8915555477142334,0.001
0.7164739966392517,0.8360000252723694,0.6511920690536499,0.8931111097335815,0.001
0.710365355014801,0.8180000185966492,0.6369225382804871,0.8948888778686523,0.001
0.6858099102973938,0.8259999752044678,0.6239727735519409,0.897777795791626,0.001
0.6849027276039124,0.8379999995231628,0.6115057468414307,0.898888885974884,0.001
0.6810712218284607,0.8299999833106995,0.599761962890625,0.9006666541099548,0.001
0.6538131237030029,0.8420000076293945,0.5885341763496399,0.9020000100135803,0.001
0.6588155031204224,0.8600000143051147,0.5775682330131531,0.9026666879653931,0.001
0.6505904793739319,0.8619999885559082,0.566830575466156,0.9039999842643738,0.001
0.6218031644821167,0.8659999966621399,0.5569325089454651,0.9051111340522766,0.001
0.6302443742752075,0.8640000224113464,0.5471019744873047,0.9066666960716248,0.001
0.6118050217628479,0.8700000047683716,0.5381140112876892,0.9066666960716248,0.001
0.5827913880348206,0.8679999709129333,0.5291925072669983,0.9066666960716248,0.001
0.5773550868034363,0.8920000195503235,0.520984411239624,0.9068889021873474,0.001
0.5790913105010986,0.8600000143051147,0.5132564902305603,0.9075555801391602,0.001
0.563143253326416,0.8799999952316284,0.5057770609855652,0.9079999923706055,0.001
0.5835142731666565,0.8759999871253967,0.498511403799057,0.9084444642066956,0.001
0.5666070580482483,0.8840000033378601,0.49156883358955383,0.9082221984863281,0.001
0.5389435291290283,0.8840000033378601,0.484907329082489,0.9086666703224182,0.001
0.5334060788154602,0.8980000019073486,0.47862109541893005,0.909333348274231,0.001
0.5392413139343262,0.8880000114440918,0.472594290971756,0.9102222323417664,0.001
0.5338013768196106,0.8920000195503235,0.46662065386772156,0.9102222323417664,0.001
0.5235830545425415,0.8939999938011169,0.4608665406703949,0.910444438457489,0.001
0.5104926824569702,0.8920000195503235,0.4555012583732605,0.9106666445732117,0.001
0.5194193720817566,0.8999999761581421,0.4503338634967804,0.9106666445732117,0.001
0.5121126770973206,0.9020000100135803,0.4456087052822113,0.910444438457489,0.001
0.5018468499183655,0.8999999761581421,0.4408118426799774,0.9100000262260437,0.001
0.5038233399391174,0.8939999938011169,0.43621689081192017,0.9102222323417664,0.001
0.4839939475059509,0.8980000019073486,0.43195030093193054,0.9102222323417664,0.001
0.48066216707229614,0.9020000100135803,0.42792433500289917,0.9106666445732117,0.001
0.4610990285873413,0.9160000085830688,0.4240933358669281,0.910444438457489,0.001
0.4750908613204956,0.9039999842643738,0.4202643930912018,0.9111111164093018,0.001
0.4623262584209442,0.9139999747276306,0.4167010188102722,0.9111111164093018,0.001
0.473850816488266,0.9139999747276306,0.41316840052604675,0.9111111164093018,0.001
0.48024433851242065,0.8980000019073486,0.4098431468009949,0.9111111164093018,0.001
0.4441271424293518,0.9100000262260437,0.4067046642303467,0.9113333225250244,0.001
0.4556698203086853,0.9079999923706055,0.40380892157554626,0.9113333225250244,0.001
0.4610235393047333,0.9079999923706055,0.4008939862251282,0.9113333225250244,0.001
0.42570340633392334,0.921999990940094,0.3981491029262543,0.9113333225250244,0.001
0.43826794624328613,0.9200000166893005,0.3954514265060425,0.9113333225250244,0.001
0.42358267307281494,0.9200000166893005,0.3928719758987427,0.9113333225250244,0.001
0.4275282025337219,0.9160000085830688,0.3904190957546234,0.9117777943611145,0.001
0.42558571696281433,0.9120000004768372,0.38803359866142273,0.9117777943611145,0.001
0.4401993453502655,0.9160000085830688,0.3856818377971649,0.9120000004768372,0.001
0.433923602104187,0.9139999747276306,0.3835286498069763,0.9120000004768372,0.001
0.4257937967777252,0.9079999923706055,0.3814563751220703,0.9120000004768372,0.001
0.41711217164993286,0.9179999828338623,0.3794890344142914,0.9120000004768372,0.001
0.4264299273490906,0.9200000166893005,0.3775379955768585,0.9120000004768372,0.001
0.390431672334671,0.9200000166893005,0.3757588565349579,0.9120000004768372,0.001
0.40819481015205383,0.9139999747276306,0.3738376796245575,0.9120000004768372,0.001
0.4088571071624756,0.9120000004768372,0.3721294701099396,0.9124444723129272,0.001
0.41703933477401733,0.9179999828338623,0.3703841269016266,0.9124444723129272,0.001
0.4278259575366974,0.9160000085830688,0.36881887912750244,0.9124444723129272,0.001
0.40976065397262573,0.9100000262260437,0.3673836290836334,0.9124444723129272,0.001
0.3947029411792755,0.9139999747276306,0.36593934893608093,0.9124444723129272,0.001
0.4033898115158081,0.9139999747276306,0.364554762840271,0.9126666784286499,0.001
0.3968958258628845,0.9079999923706055,0.3632471263408661,0.9126666784286499,0.001
0.39294368028640747,0.9179999828338623,0.3619705140590668,0.9128888845443726,0.001
0.3938460648059845,0.9139999747276306,0.36066770553588867,0.9128888845443726,0.001
0.3790019750595093,0.9200000166893005,0.35946646332740784,0.9128888845443726,0.001
0.38594451546669006,0.9139999747276306,0.3582906723022461,0.9128888845443726,0.001
0.3847680389881134,0.9200000166893005,0.35722869634628296,0.9128888845443726,0.001
0.38775381445884705,0.9200000166893005,0.3562065362930298,0.9128888845443726,0.001
0.38271433115005493,0.9240000247955322,0.3551449775695801,0.9128888845443726,0.001
0.3819430470466614,0.9300000071525574,0.3540949523448944,0.9128888845443726,0.001
0.37577876448631287,0.9240000247955322,0.3530513644218445,0.9128888845443726,0.001
0.3842203617095947,0.9240000247955322,0.35202690958976746,0.9128888845443726,0.001
0.3796403408050537,0.921999990940094,0.35102224349975586,0.9131110906600952,0.001
0.3617520332336426,0.9160000085830688,0.35014045238494873,0.9131110906600952,0.001
0.37638017535209656,0.921999990940094,0.3491665720939636,0.9133333563804626,0.001
0.37313684821128845,0.9160000085830688,0.3482365310192108,0.9135555624961853,0.001
0.3628958761692047,0.9200000166893005,0.34723198413848877,0.9133333563804626,0.001
0.37440213561058044,0.9240000247955322,0.3462468385696411,0.9133333563804626,0.001
0.36679109930992126,0.921999990940094,0.3452976942062378,0.9133333563804626,0.001
0.3761460781097412,0.9240000247955322,0.34444016218185425,0.9135555624961853,0.001
0.3678756654262543,0.9240000247955322,0.34360259771347046,0.913777768611908,0.001
0.3769734501838684,0.9160000085830688,0.34280523657798767,0.913777768611908,0.001
0.3616170883178711,0.9240000247955322,0.3419930338859558,0.913777768611908,0.001
0.36906009912490845,0.9259999990463257,0.341282457113266,0.9139999747276306,0.001
0.35267651081085205,0.921999990940094,0.34051650762557983,0.9139999747276306,0.001
0.3549184799194336,0.921999990940094,0.3397027850151062,0.9139999747276306,0.001
0.35815632343292236,0.9240000247955322,0.3389016389846802,0.914222240447998,0.001
0.34914901852607727,0.9240000247955322,0.33819714188575745,0.9146666526794434,0.001
0.35617685317993164,0.9200000166893005,0.3374709486961365,0.9146666526794434,0.001
0.3657979667186737,0.9259999990463257,0.33677682280540466,0.9146666526794434,0.001
0.36413803696632385,0.9240000247955322,0.33601871132850647,0.9146666526794434,0.001
0.3593953549861908,0.9300000071525574,0.33535507321357727,0.9146666526794434,0.001
0.3500686585903168,0.9179999828338623,0.33465060591697693,0.9148889183998108,0.001
0.35261380672454834,0.921999990940094,0.334001362323761,0.9148889183998108,0.001
0.34396857023239136,0.921999990940094,0.33347833156585693,0.9148889183998108,0.001
0.34610483050346375,0.921999990940094,0.33284106850624084,0.9151111245155334,0.001
0.3616636097431183,0.9179999828338623,0.3322466015815735,0.9151111245155334,0.001
0.3560042977333069,0.9179999828338623,0.33168306946754456,0.9151111245155334,0.001
0.3549560010433197,0.9279999732971191,0.331056147813797,0.9151111245155334,0.001
0.36310380697250366,0.9259999990463257,0.33051714301109314,0.9151111245155334,0.001
0.3430385887622833,0.921999990940094,0.3298794627189636,0.9151111245155334,0.001
0.36128154397010803,0.9279999732971191,0.32932865619659424,0.9151111245155334,0.001
0.3515215516090393,0.921999990940094,0.328779011964798,0.9151111245155334,0.001
0.34949854016304016,0.9240000247955322,0.328200101852417,0.9153333306312561,0.001
0.33707696199417114,0.9200000166893005,0.3277587592601776,0.9153333306312561,0.001
0.34115567803382874,0.9300000071525574,0.32718631625175476,0.9155555367469788,0.001
0.344185471534729,0.9240000247955322,0.3267093598842621,0.9155555367469788,0.001
0.3328512907028198,0.9259999990463257,0.32620659470558167,0.9155555367469788,0.001
0.34288838505744934,0.9240000247955322,0.32567232847213745,0.9155555367469788,0.001
0.3493262231349945,0.921999990940094,0.3250608444213867,0.9155555367469788,0.001
0.33584457635879517,0.921999990940094,0.3246533274650574,0.9155555367469788,0.001
0.3360716700553894,0.921999990940094,0.3242132067680359,0.9155555367469788,0.001
0.35386136174201965,0.9160000085830688,0.3237209916114807,0.9155555367469788,0.001
0.3335796296596527,0.9240000247955322,0.323248952627182,0.9155555367469788,0.001
0.3277658522129059,0.9240000247955322,0.3228651285171509,0.9155555367469788,0.001
0.33281955122947693,0.9200000166893005,0.3224097192287445,0.9155555367469788,0.001
0.3319404423236847,0.921999990940094,0.3219235837459564,0.9155555367469788,0.001
0.3309798240661621,0.9300000071525574,0.3214564323425293,0.9155555367469788,0.001
0.3418123424053192,0.921999990940094,0.3210100829601288,0.9153333306312561,0.001
0.33790406584739685,0.9259999990463257,0.3205316960811615,0.9153333306312561,0.001
0.3380129337310791,0.9259999990463257,0.32004329562187195,0.9153333306312561,0.001
0.33906400203704834,0.9240000247955322,0.3196168541908264,0.9155555367469788,0.001
0.3263184726238251,0.9300000071525574,0.31919923424720764,0.9157778024673462,0.001
0.33465713262557983,0.921999990940094,0.3187614381313324,0.9157778024673462,0.001
0.3360770046710968,0.9240000247955322,0.31830984354019165,0.9157778024673462,0.001
0.3212353587150574,0.9279999732971191,0.3179106116294861,0.9160000085830688,0.001
0.3279425799846649,0.9300000071525574,0.3174329698085785,0.9160000085830688,0.001
0.3256276249885559,0.9319999814033508,0.3170395493507385,0.9160000085830688,0.001
0.31801867485046387,0.9259999990463257,0.3165683150291443,0.9160000085830688,0.001
0.33058100938796997,0.9259999990463257,0.3161856234073639,0.9160000085830688,0.001
0.3105350732803345,0.9259999990463257,0.31574907898902893,0.9160000085830688,0.001
0.3291425108909607,0.9200000166893005,0.3153092861175537,0.9162222146987915,0.001
0.32498881220817566,0.921999990940094,0.31490352749824524,0.9162222146987915,0.001
0.31882449984550476,0.921999990940094,0.3144990801811218,0.9162222146987915,0.001
0.33925411105155945,0.9300000071525574,0.3140374422073364,0.9162222146987915,0.001
0.33540016412734985,0.9240000247955322,0.3136272430419922,0.9164444208145142,0.001
0.31527453660964966,0.9240000247955322,0.3131641745567322,0.9164444208145142,0.001
0.31106430292129517,0.9259999990463257,0.3128061890602112,0.9164444208145142,0.001
0.3090580105781555,0.9279999732971191,0.3124333620071411,0.9166666865348816,0.001
0.3167496621608734,0.9179999828338623,0.3120739161968231,0.9166666865348816,0.001
0.3335062563419342,0.9259999990463257,0.31171390414237976,0.9164444208145142,0.001
0.309453547000885,0.9259999990463257,0.31142133474349976,0.9164444208145142,0.001
0.3125803470611572,0.9259999990463257,0.31108778715133667,0.9164444208145142,0.001
0.3229513168334961,0.9279999732971191,0.3107168972492218,0.9164444208145142,0.001
0.32024726271629333,0.9240000247955322,0.3103967010974884,0.9166666865348816,0.001
0.31704387068748474,0.9259999990463257,0.31010371446609497,0.9166666865348816,0.001
0.32444339990615845,0.921999990940094,0.3097212314605713,0.9168888926506042,0.001
0.32260268926620483,0.9319999814033508,0.3092998266220093,0.9168888926506042,0.001
0.3204987049102783,0.9240000247955322,0.30896100401878357,0.9168888926506042,0.001
0.3265719711780548,0.921999990940094,0.3086499571800232,0.9168888926506042,0.001
0.3136516511440277,0.9319999814033508,0.30829986929893494,0.9168888926506042,0.001
0.3274482488632202,0.9259999990463257,0.3079211115837097,0.9168888926506042,0.001
0.3356136381626129,0.9240000247955322,0.3075351119041443,0.9171110987663269,0.001
0.31982848048210144,0.921999990940094,0.3070947825908661,0.9171110987663269,0.001
0.30860453844070435,0.9259999990463257,0.30673956871032715,0.9171110987663269,0.001
0.31904706358909607,0.921999990940094,0.30639147758483887,0.9173333048820496,0.001
0.32029759883880615,0.9279999732971191,0.3059941828250885,0.9173333048820496,0.001
0.3135722577571869,0.9259999990463257,0.3056428134441376,0.9173333048820496,0.001
0.3056891858577728,0.9279999732971191,0.3053368628025055,0.917555570602417,0.001
0.3051735460758209,0.9200000166893005,0.3049911856651306,0.9177777767181396,0.001
0.30790096521377563,0.9259999990463257,0.3046566843986511,0.9177777767181396,0.001
0.3170987665653229,0.9259999990463257,0.30421915650367737,0.9177777767181396,0.001
0.30825427174568176,0.9240000247955322,0.3039170801639557,0.917555570602417,0.001
0.29917195439338684,0.9200000166893005,0.3036375343799591,0.917555570602417,0.001
0.3116300106048584,0.9259999990463257,0.3033590316772461,0.917555570602417,0.001
0.3265226185321808,0.9240000247955322,0.30301541090011597,0.917555570602417,0.001
0.2973063886165619,0.9279999732971191,0.302686482667923,0.917555570602417,0.001
0.3170544505119324,0.9279999732971191,0.30245259404182434,0.917555570602417,0.001
0.30133572220802307,0.9259999990463257,0.3021581768989563,0.917555570602417,0.001
0.3056431710720062,0.9240000247955322,0.3018423020839691,0.917555570602417,0.001
0.297932893037796,0.921999990940094,0.30152881145477295,0.917555570602417,0.001
0.31332236528396606,0.9240000247955322,0.30114951729774475,0.917555570602417,0.001
0.3112458884716034,0.9259999990463257,0.30086567997932434,0.917555570602417,0.001
0.3064119517803192,0.9279999732971191,0.3005616366863251,0.917555570602417,0.001
0.30948111414909363,0.9300000071525574,0.3002619743347168,0.917555570602417,0.001
0.30756494402885437,0.9279999732971191,0.2999648451805115,0.917555570602417,0.001
0.302255779504776,0.9259999990463257,0.2996368706226349,0.917555570602417,0.001
0.3091130554676056,0.9259999990463257,0.2993718981742859,0.917555570602417,0.001
0.29544517397880554,0.921999990940094,0.29903703927993774,0.9179999828338623,0.001
0.2990306317806244,0.9240000247955322,0.298752099275589,0.9179999828338623,0.001
0.3030032813549042,0.9319999814033508,0.298390656709671,0.9182222485542297,0.001
0.29598283767700195,0.9300000071525574,0.2980465888977051,0.9182222485542297,0.001
0.29957059025764465,0.9240000247955322,0.2978565990924835,0.9182222485542297,0.001
0.29571014642715454,0.9259999990463257,0.2976442873477936,0.9182222485542297,0.001
0.30897974967956543,0.9279999732971191,0.2972690463066101,0.9184444546699524,0.001
0.2918921709060669,0.9300000071525574,0.29696163535118103,0.918666660785675,0.001
0.2879718542098999,0.9240000247955322,0.29667502641677856,0.918666660785675,0.001
0.29342401027679443,0.9279999732971191,0.29638078808784485,0.918666660785675,0.001
0.3040119707584381,0.9259999990463257,0.2961314618587494,0.918666660785675,0.001
0.2859719395637512,0.9300000071525574,0.2958695888519287,0.918666660785675,0.001
0.3022958040237427,0.9240000247955322,0.2955094575881958,0.918666660785675,0.001
0.30676671862602234,0.9279999732971191,0.29526829719543457,0.918666660785675,0.001
0.3023650050163269,0.9319999814033508,0.29499122500419617,0.918666660785675,0.001
0.2996821105480194,0.9240000247955322,0.2947031855583191,0.918666660785675,0.001
0.28853923082351685,0.9279999732971191,0.2944738268852234,0.9188888669013977,0.001
0.29593223333358765,0.9300000071525574,0.29416701197624207,0.9188888669013977,0.001
0.3089911639690399,0.9319999814033508,0.2939264178276062,0.9188888669013977,0.001
0.3047617971897125,0.9300000071525574,0.29361090064048767,0.9188888669013977,0.001
0.2907963991165161,0.9259999990463257,0.29331353306770325,0.9188888669013977,0.001
0.29755711555480957,0.9259999990463257,0.2930305004119873,0.9188888669013977,0.001
0.28602734208106995,0.9300000071525574,0.2927258610725403,0.9188888669013977,0.001
0.31769996881484985,0.9259999990463257,0.29237625002861023,0.9188888669013977,0.001
0.29427701234817505,0.9279999732971191,0.29211005568504333,0.9188888669013977,0.001
0.29480206966400146,0.9240000247955322,0.2918737828731537,0.9188888669013977,0.001
0.3061215281486511,0.9300000071525574,0.2916220426559448,0.9188888669013977,0.001
0.30927732586860657,0.9259999990463257,0.29133448004722595,0.9188888669013977,0.001
0.2797054350376129,0.9279999732971191,0.29111194610595703,0.9188888669013977,0.001
0.2920900881290436,0.9259999990463257,0.2908843755722046,0.9188888669013977,0.001
0.2995387315750122,0.9279999732971191,0.2906028926372528,0.9188888669013977,0.001
0.2898558974266052,0.9300000071525574,0.29036858677864075,0.9188888669013977,0.001
0.2812463939189911,0.9319999814033508,0.2901817858219147,0.9188888669013977,0.001
0.2958052158355713,0.9300000071525574,0.28982868790626526,0.9188888669013977,0.001
0.3049808740615845,0.9259999990463257,0.28956717252731323,0.9188888669013977,0.001
0.28413712978363037,0.9240000247955322,0.28929534554481506,0.9188888669013977,0.001
0.2795916199684143,0.9300000071525574,0.2891075611114502,0.9191111326217651,0.001
0.30292999744415283,0.9300000071525574,0.2887986898422241,0.9191111326217651,0.001
0.2752728760242462,0.9319999814033508,0.2884502112865448,0.9191111326217651,0.001
0.2904948890209198,0.9279999732971191,0.2881695330142975,0.9191111326217651,0.001
0.2858269214630127,0.9279999732971191,0.28789272904396057,0.9191111326217651,0.001
0.28437647223472595,0.9259999990463257,0.28762152791023254,0.9188888669013977,0.001
0.3070518970489502,0.9259999990463257,0.2873326539993286,0.9188888669013977,0.001
0.3017643094062805,0.9259999990463257,0.28705987334251404,0.9188888669013977,0.001
0.29153311252593994,0.9279999732971191,0.2867647707462311,0.9188888669013977,0.001
0.29793593287467957,0.9279999732971191,0.28652411699295044,0.9193333387374878,0.001
0.2813352048397064,0.9259999990463257,0.28624027967453003,0.9193333387374878,0.001
0.29877421259880066,0.9279999732971191,0.28592243790626526,0.9195555448532104,0.001
0.2817556858062744,0.9300000071525574,0.28560489416122437,0.9195555448532104,0.001
0.3063086271286011,0.9259999990463257,0.28529974818229675,0.9195555448532104,0.001
0.29952532052993774,0.9200000166893005,0.28500398993492126,0.9195555448532104,0.001
0.28262439370155334,0.9300000071525574,0.28476354479789734,0.9195555448532104,0.001
0.2942212224006653,0.9200000166893005,0.28449469804763794,0.9195555448532104,0.001
0.28355905413627625,0.9300000071525574,0.2842373549938202,0.9195555448532104,0.001
0.2886529266834259,0.9340000152587891,0.28393906354904175,0.9195555448532104,0.001
0.29918786883354187,0.9259999990463257,0.2836998999118805,0.9195555448532104,0.001
0.2894992232322693,0.9279999732971191,0.28349563479423523,0.9195555448532104,0.001
0.283387690782547,0.9279999732971191,0.2833350598812103,0.9195555448532104,0.001
0.2896246910095215,0.9279999732971191,0.28309717774391174,0.9195555448532104,0.001
0.2766122817993164,0.9259999990463257,0.2828390598297119,0.9195555448532104,0.001
0.2813591957092285,0.9319999814033508,0.2826840877532959,0.9195555448532104,0.001
0.2877908945083618,0.9259999990463257,0.28239864110946655,0.9195555448532104,0.001
0.2761442959308624,0.9300000071525574,0.2821381688117981,0.9195555448532104,0.001
0.2944656014442444,0.9240000247955322,0.28186464309692383,0.9195555448532104,0.001
0.27646660804748535,0.9200000166893005,0.2816608250141144,0.9195555448532104,0.001
0.2767913043498993,0.9300000071525574,0.28140830993652344,0.9195555448532104,0.001
0.2828260064125061,0.9259999990463257,0.28121230006217957,0.9195555448532104,0.001
0.2869819402694702,0.9279999732971191,0.2809693515300751,0.9195555448532104,0.001
0.27916884422302246,0.9300000071525574,0.2807392477989197,0.9195555448532104,0.001
0.29400938749313354,0.9300000071525574,0.28038930892944336,0.9195555448532104,0.001
0.2957303524017334,0.9259999990463257,0.2801749110221863,0.9195555448532104,0.001
0.2684018015861511,0.9300000071525574,0.279975026845932,0.9195555448532104,0.001
0.275865763425827,0.9240000247955322,0.2796863317489624,0.9195555448532104,0.001
0.2633226811885834,0.9300000071525574,0.2794818580150604,0.9195555448532104,0.001
0.2797645032405853,0.9279999732971191,0.27932649850845337,0.9195555448532104,0.001
0.28282052278518677,0.9259999990463257,0.27908068895339966,0.9195555448532104,0.001
0.2792450487613678,0.9300000071525574,0.27890610694885254,0.9195555448532104,0.001
0.2766197621822357,0.9319999814033508,0.2787386476993561,0.9195555448532104,0.001
0.27469050884246826,0.9300000071525574,0.2784940004348755,0.9195555448532104,0.001
0.27653050422668457,0.9300000071525574,0.27836543321609497,0.9195555448532104,0.001
0.2779790461063385,0.9259999990463257,0.27807143330574036,0.9195555448532104,0.001
0.2848200500011444,0.9319999814033508,0.27777206897735596,0.9195555448532104,0.001
0.269771009683609,0.9279999732971191,0.2775396406650543,0.9195555448532104,0.001
0.2680049538612366,0.9240000247955322,0.27732741832733154,0.9195555448532104,0.001
0.27999016642570496,0.9279999732971191,0.2771591246128082,0.9195555448532104,0.001
0.2769116461277008,0.9259999990463257,0.27695655822753906,0.9195555448532104,0.001
0.27879849076271057,0.9300000071525574,0.2766149640083313,0.9195555448532104,0.001
0.27873483300209045,0.9279999732971191,0.27641135454177856,0.9195555448532104,0.001
0.2657040059566498,0.9319999814033508,0.27620384097099304,0.9195555448532104,0.001
0.273650586605072,0.9259999990463257,0.27595609426498413,0.9195555448532104,0.001
0.26548996567726135,0.9259999990463257,0.27570661902427673,0.9195555448532104,0.001
0.27388808131217957,0.9300000071525574,0.2754964232444763,0.9193333387374878,0.001
0.265131413936615,0.9279999732971191,0.2752395570278168,0.9193333387374878,0.001
0.28404179215431213,0.9319999814033508,0.27505406737327576,0.9193333387374878,0.001
0.2838710844516754,0.9340000152587891,0.2748795747756958,0.9193333387374878,0.001
0.2778438925743103,0.9319999814033508,0.2747442126274109,0.9193333387374878,0.001
0.2723800837993622,0.9300000071525574,0.27446749806404114,0.9193333387374878,0.001
0.2674165368080139,0.9300000071525574,0.27424678206443787,0.9193333387374878,0.001
0.2789486050605774,0.9279999732971191,0.2740817070007324,0.9193333387374878,0.001
0.2804693877696991,0.9300000071525574,0.2739132344722748,0.9193333387374878,0.001
0.25767865777015686,0.9300000071525574,0.27376556396484375,0.9193333387374878,0.001
0.2698507308959961,0.9300000071525574,0.27355679869651794,0.9193333387374878,0.001
0.2732419967651367,0.9279999732971191,0.27334195375442505,0.9193333387374878,0.001
0.2691294252872467,0.9319999814033508,0.2731325030326843,0.9195555448532104,0.001
0.2778126001358032,0.9300000071525574,0.27289697527885437,0.9195555448532104,0.001
0.275669127702713,0.9259999990463257,0.2727358043193817,0.9195555448532104,0.001
0.27759164571762085,0.9300000071525574,0.27257877588272095,0.9195555448532104,0.001
0.28908875584602356,0.9300000071525574,0.2724088132381439,0.9195555448532104,0.001
0.2582061290740967,0.9300000071525574,0.2721874713897705,0.9195555448532104,0.001
0.26793372631073,0.9319999814033508,0.27192530035972595,0.9195555448532104,0.001
0.2832111716270447,0.9259999990463257,0.2717302441596985,0.9200000166893005,0.001
0.27184441685676575,0.9259999990463257,0.27149689197540283,0.9200000166893005,0.001
0.2693551182746887,0.9300000071525574,0.27134403586387634,0.9200000166893005,0.001
0.2791763246059418,0.9300000071525574,0.27113717794418335,0.9200000166893005,0.001
0.2716822326183319,0.9279999732971191,0.270953506231308,0.9200000166893005,0.001
0.2819640040397644,0.9300000071525574,0.2707439363002777,0.9200000166893005,0.001
0.26545804738998413,0.9319999814033508,0.2705334722995758,0.9200000166893005,0.001
0.2766892611980438,0.9279999732971191,0.27039507031440735,0.9200000166893005,0.001
0.27228453755378723,0.9279999732971191,0.27022257447242737,0.9200000166893005,0.001
0.2755499482154846,0.9259999990463257,0.26994749903678894,0.9200000166893005,0.001
0.26423129439353943,0.9300000071525574,0.2697654962539673,0.9202222228050232,0.001
0.26377594470977783,0.9240000247955322,0.2695859372615814,0.9202222228050232,0.001
0.28316009044647217,0.921999990940094,0.2694804072380066,0.9202222228050232,0.001
0.2710283100605011,0.9300000071525574,0.2693336606025696,0.9202222228050232,0.001
0.2585717737674713,0.9300000071525574,0.2691858112812042,0.9202222228050232,0.001
0.2538042366504669,0.9279999732971191,0.2690316438674927,0.9202222228050232,0.001
0.2568820118904114,0.9319999814033508,0.2689160704612732,0.9202222228050232,0.001
0.261567622423172,0.9300000071525574,0.26871258020401,0.9202222228050232,0.001
0.2583348751068115,0.9300000071525574,0.26857584714889526,0.9202222228050232,0.001
0.2527454197406769,0.9300000071525574,0.26836055517196655,0.9202222228050232,0.001
0.2773668169975281,0.9300000071525574,0.2681008577346802,0.9202222228050232,0.001
0.257821649312973,0.9279999732971191,0.26786425709724426,0.9202222228050232,0.001
0.27464792132377625,0.9279999732971191,0.2676087021827698,0.9202222228050232,0.001
0.2684137523174286,0.9300000071525574,0.2675170302391052,0.9202222228050232,0.001
0.28293952345848083,0.9300000071525574,0.26726555824279785,0.9202222228050232,0.001
0.27547308802604675,0.9279999732971191,0.2670387923717499,0.9202222228050232,0.001
0.27034375071525574,0.9300000071525574,0.26679933071136475,0.9204444289207458,0.001
0.26202476024627686,0.9300000071525574,0.2667027711868286,0.9204444289207458,0.001
0.2833717465400696,0.9279999732971191,0.2665890157222748,0.9204444289207458,0.001
0.25708135962486267,0.9359999895095825,0.26643913984298706,0.9204444289207458,0.001
0.26275718212127686,0.9259999990463257,0.26623257994651794,0.9204444289207458,0.001
0.2586948871612549,0.9259999990463257,0.2660571038722992,0.9204444289207458,0.001
0.2554895877838135,0.9300000071525574,0.26597586274147034,0.9204444289207458,0.001
0.26920029520988464,0.9259999990463257,0.2657495439052582,0.9204444289207458,0.001
0.26436442136764526,0.9340000152587891,0.2655731737613678,0.9204444289207458,0.001
0.2606394588947296,0.9300000071525574,0.265389621257782,0.9204444289207458,0.001
0.25926196575164795,0.9300000071525574,0.2651815712451935,0.9204444289207458,0.001
0.2708977460861206,0.9240000247955322,0.2649191617965698,0.9204444289207458,0.001
0.26816436648368835,0.9300000071525574,0.2648283839225769,0.9204444289207458,0.001
0.27060067653656006,0.9259999990463257,0.26465070247650146,0.9204444289207458,0.001
0.26260945200920105,0.9259999990463257,0.2644537091255188,0.9204444289207458,0.001
0.26719969511032104,0.9279999732971191,0.26429080963134766,0.9204444289207458,0.001
0.2475249171257019,0.9319999814033508,0.26416540145874023,0.9204444289207458,0.001
0.26141950488090515,0.9259999990463257,0.26394397020339966,0.9204444289207458,0.001
0.25826263427734375,0.9319999814033508,0.26377958059310913,0.9204444289207458,0.001
0.2660054564476013,0.9300000071525574,0.26376667618751526,0.9204444289207458,0.001
0.2528403103351593,0.9319999814033508,0.2635287940502167,0.9204444289207458,0.001
0.2551535665988922,0.9340000152587891,0.2633519768714905,0.9204444289207458,0.001
0.24601587653160095,0.9279999732971191,0.2632105052471161,0.9204444289207458,0.001
0.26986226439476013,0.9279999732971191,0.26295825839042664,0.9204444289207458,0.001
0.2695782780647278,0.9300000071525574,0.26283684372901917,0.9204444289207458,0.001
0.2659432291984558,0.9259999990463257,0.2626762092113495,0.9204444289207458,0.001
0.2676577866077423,0.9279999732971191,0.26246508955955505,0.9204444289207458,0.001
0.24897122383117676,0.9279999732971191,0.262332946062088,0.9204444289207458,0.001
0.23751358687877655,0.9359999895095825,0.26214027404785156,0.9204444289207458,0.001
0.2675529718399048,0.9259999990463257,0.262006014585495,0.9204444289207458,0.001
0.2612638771533966,0.9259999990463257,0.26187682151794434,0.9204444289207458,0.001
0.2441583126783371,0.9319999814033508,0.2617172598838806,0.9206666946411133,0.001
0.25869208574295044,0.9300000071525574,0.2615344822406769,0.9206666946411133,0.001
0.2668454051017761,0.9279999732971191,0.2613484561443329,0.9206666946411133,0.001
0.2519221007823944,0.9279999732971191,0.26123854517936707,0.9206666946411133,0.001
0.2622619867324829,0.9319999814033508,0.26104965806007385,0.9206666946411133,0.001
0.248579204082489,0.9340000152587891,0.2609439790248871,0.9206666946411133,0.001
0.26301342248916626,0.9340000152587891,0.2608085870742798,0.9206666946411133,0.001
0.24768483638763428,0.9300000071525574,0.26066532731056213,0.9208889007568359,0.001
0.25732943415641785,0.9319999814033508,0.26055291295051575,0.9208889007568359,0.001
0.25668901205062866,0.9319999814033508,0.26046743988990784,0.9208889007568359,0.001
0.2646380066871643,0.9300000071525574,0.26027995347976685,0.9211111068725586,0.001
0.2609637379646301,0.9319999814033508,0.2601240575313568,0.9211111068725586,0.001
0.26187190413475037,0.9340000152587891,0.25997447967529297,0.9211111068725586,0.001
0.25431641936302185,0.9340000152587891,0.2598615288734436,0.9211111068725586,0.001
0.25338783860206604,0.9300000071525574,0.2596747875213623,0.9211111068725586,0.001
0.2555466294288635,0.9319999814033508,0.2595590054988861,0.9211111068725586,0.001
0.2690296769142151,0.9259999990463257,0.25942692160606384,0.9211111068725586,0.001
0.2689586579799652,0.9319999814033508,0.2593050003051758,0.9211111068725586,0.001
0.2581998109817505,0.9279999732971191,0.25914016366004944,0.9211111068725586,0.001
0.2708299458026886,0.9259999990463257,0.2589496672153473,0.9211111068725586,0.001
0.2686079442501068,0.9279999732971191,0.25880521535873413,0.9211111068725586,0.001
0.2597629129886627,0.9319999814033508,0.25869885087013245,0.9211111068725586,0.001
0.2712561786174774,0.9259999990463257,0.25852176547050476,0.9211111068725586,0.001
0.24391166865825653,0.9340000152587891,0.2584647536277771,0.9211111068725586,0.001
0.24674688279628754,0.9300000071525574,0.2582283914089203,0.9211111068725586,0.001
0.23468442261219025,0.9300000071525574,0.2580639719963074,0.9211111068725586,0.001
0.26195579767227173,0.9319999814033508,0.25790974497795105,0.9211111068725586,0.001
0.25253424048423767,0.9319999814033508,0.25773587822914124,0.9211111068725586,0.001
0.24287784099578857,0.9319999814033508,0.25758957862854004,0.9213333129882812,0.001
0.25027817487716675,0.9319999814033508,0.2574962377548218,0.9213333129882812,0.001
0.26012122631073,0.9300000071525574,0.25738921761512756,0.9213333129882812,0.001
0.2580852210521698,0.9300000071525574,0.2572953999042511,0.9213333129882812,0.001
0.2470105141401291,0.9340000152587891,0.2571174204349518,0.9213333129882812,0.001
0.25188854336738586,0.9259999990463257,0.2569773197174072,0.9213333129882812,0.001
0.25237149000167847,0.9300000071525574,0.25688979029655457,0.9213333129882812,0.001
0.24234813451766968,0.9319999814033508,0.25676819682121277,0.9213333129882812,0.001
0.24485573172569275,0.9259999990463257,0.25659826397895813,0.9213333129882812,0.001
0.25847235321998596,0.9319999814033508,0.256430447101593,0.9213333129882812,0.001
0.25055253505706787,0.9259999990463257,0.25637245178222656,0.9213333129882812,0.001
0.24978166818618774,0.9380000233650208,0.2562147378921509,0.9213333129882812,0.001
0.24096302688121796,0.9359999895095825,0.2560683488845825,0.9213333129882812,0.001
0.24880696833133698,0.9300000071525574,0.25599804520606995,0.9213333129882812,0.001
0.2626536786556244,0.9319999814033508,0.2557794749736786,0.9213333129882812,0.001
0.24023054540157318,0.9359999895095825,0.25560903549194336,0.9213333129882812,0.001
0.24439255893230438,0.9279999732971191,0.25544634461402893,0.9213333129882812,0.001
0.2552865743637085,0.9319999814033508,0.2552773654460907,0.9213333129882812,0.001
0.25154373049736023,0.9359999895095825,0.25511863827705383,0.9213333129882812,0.001
0.2483423352241516,0.9300000071525574,0.25496283173561096,0.9213333129882812,0.001
0.2655157446861267,0.9300000071525574,0.2548314929008484,0.9213333129882812,0.001
0.2629009187221527,0.9319999814033508,0.254678875207901,0.9213333129882812,0.001
0.2661456763744354,0.9279999732971191,0.2545773983001709,0.9213333129882812,0.001
0.252689003944397,0.9300000071525574,0.2544827163219452,0.9213333129882812,0.001
0.24328169226646423,0.9340000152587891,0.2544018626213074,0.9213333129882812,0.001
0.24925270676612854,0.9340000152587891,0.2542811334133148,0.9213333129882812,0.001
0.25523921847343445,0.9300000071525574,0.25414469838142395,0.9213333129882812,0.001
0.25608423352241516,0.9359999895095825,0.25402167439460754,0.9213333129882812,0.001
0.25317245721817017,0.9319999814033508,0.2538575828075409,0.9213333129882812,0.001
0.2519592046737671,0.9279999732971191,0.2536905109882355,0.9215555787086487,0.001
0.23487800359725952,0.9300000071525574,0.2535768747329712,0.9215555787086487,0.001
0.25436854362487793,0.9300000071525574,0.2535196542739868,0.9215555787086487,0.001
0.25202667713165283,0.9279999732971191,0.25329989194869995,0.9215555787086487,0.001
0.247859925031662,0.9319999814033508,0.2531193196773529,0.9215555787086487,0.001
0.2488090693950653,0.9359999895095825,0.25302019715309143,0.9215555787086487,0.001
0.25257501006126404,0.9340000152587891,0.2528439164161682,0.9215555787086487,0.001
0.2551589906215668,0.9319999814033508,0.2527213394641876,0.9215555787086487,0.001
0.24463599920272827,0.9319999814033508,0.25267571210861206,0.9215555787086487,0.001
0.26035571098327637,0.9319999814033508,0.25256168842315674,0.9217777848243713,0.001
0.2532637119293213,0.9319999814033508,0.25244808197021484,0.9217777848243713,0.001
0.24193504452705383,0.9279999732971191,0.2523302435874939,0.9217777848243713,0.001
0.24122731387615204,0.9300000071525574,0.25226935744285583,0.9217777848243713,0.001
0.2636094093322754,0.9300000071525574,0.25202685594558716,0.9217777848243713,0.001
0.25544360280036926,0.9279999732971191,0.2518575191497803,0.9217777848243713,0.001
0.259376585483551,0.9319999814033508,0.25175395607948303,0.9217777848243713,0.001
0.22556626796722412,0.9340000152587891,0.2516859173774719,0.9217777848243713,0.001
0.23776032030582428,0.9319999814033508,0.2514801621437073,0.9217777848243713,0.001
0.25604698061943054,0.9279999732971191,0.25132477283477783,0.9222221970558167,0.001
0.2510581314563751,0.9340000152587891,0.25112903118133545,0.9222221970558167,0.001
0.2467232495546341,0.9300000071525574,0.25106310844421387,0.9222221970558167,0.001
0.24755790829658508,0.9300000071525574,0.25094279646873474,0.9222221970558167,0.001
0.24169756472110748,0.9279999732971191,0.2508658468723297,0.9224444627761841,0.001
0.24029573798179626,0.9319999814033508,0.2507772743701935,0.9224444627761841,0.001
0.23617205023765564,0.9279999732971191,0.25062644481658936,0.9224444627761841,0.001
0.24057184159755707,0.9340000152587891,0.2505708932876587,0.9226666688919067,0.001
0.2408589869737625,0.9340000152587891,0.250481516122818,0.9228888750076294,0.001
0.25726771354675293,0.9300000071525574,0.2503860294818878,0.9228888750076294,0.001
0.24484708905220032,0.9259999990463257,0.25026237964630127,0.9231111407279968,0.001
0.24272289872169495,0.9279999732971191,0.2501312792301178,0.9233333468437195,0.001
0.24844616651535034,0.9319999814033508,0.25003236532211304,0.9233333468437195,0.001
0.2528167963027954,0.9319999814033508,0.24986271560192108,0.9235555529594421,0.001
0.2490968257188797,0.9340000152587891,0.24971042573451996,0.9235555529594421,0.001
0.23240073025226593,0.9319999814033508,0.24961604177951813,0.9237777590751648,0.001
0.2332669347524643,0.9300000071525574,0.2495393306016922,0.9237777590751648,0.001
0.2431517243385315,0.9319999814033508,0.24941881000995636,0.9237777590751648,0.001
0.25137168169021606,0.9300000071525574,0.24927058815956116,0.9240000247955322,0.001
0.22720439732074738,0.9380000233650208,0.24917252361774445,0.9242222309112549,0.001
0.24060188233852386,0.9340000152587891,0.24904920160770416,0.9242222309112549,0.001
0.2498944103717804,0.9319999814033508,0.24894946813583374,0.9242222309112549,0.001
0.23818030953407288,0.9279999732971191,0.24887415766716003,0.9242222309112549,0.001
0.24030651152133942,0.9319999814033508,0.24875523149967194,0.9242222309112549,0.001
0.25313490629196167,0.9319999814033508,0.2485996037721634,0.9242222309112549,0.001
0.23589275777339935,0.9300000071525574,0.2484622597694397,0.9244444370269775,0.001
0.24666956067085266,0.9319999814033508,0.2483646124601364,0.9251111149787903,0.001
0.2560833692550659,0.9300000071525574,0.24823196232318878,0.9251111149787903,0.001
0.23775365948677063,0.9319999814033508,0.24822746217250824,0.9251111149787903,0.001
0.24515753984451294,0.9380000233650208,0.24813273549079895,0.9251111149787903,0.001
0.24100063741207123,0.9300000071525574,0.248146653175354,0.9248889088630676,0.001
0.2414681613445282,0.9340000152587891,0.24805378913879395,0.9248889088630676,0.001
0.23962634801864624,0.9300000071525574,0.2479456067085266,0.9248889088630676,0.001
0.23976492881774902,0.9359999895095825,0.2478504776954651,0.9248889088630676,0.001
0.22359998524188995,0.9359999895095825,0.2477962225675583,0.9248889088630676,0.001
0.24161778390407562,0.9300000071525574,0.24768370389938354,0.9248889088630676,0.001
0.23955082893371582,0.9319999814033508,0.24762679636478424,0.9248889088630676,0.001
0.24305710196495056,0.9300000071525574,0.2475215047597885,0.9248889088630676,0.001
0.23255589604377747,0.9319999814033508,0.24745480716228485,0.9251111149787903,0.001
0.24403172731399536,0.9319999814033508,0.24731874465942383,0.9251111149787903,0.001
0.22760549187660217,0.9279999732971191,0.2471947968006134,0.9251111149787903,0.001
0.22171209752559662,0.9380000233650208,0.24714602530002594,0.9251111149787903,0.001
0.23983971774578094,0.9340000152587891,0.24702352285385132,0.9253333210945129,0.001
0.24434395134449005,0.9340000152587891,0.24695651233196259,0.9253333210945129,0.001
0.24064800143241882,0.9319999814033508,0.24683040380477905,0.9253333210945129,0.001
0.24001330137252808,0.9359999895095825,0.24676470458507538,0.9253333210945129,0.001
0.24166397750377655,0.9340000152587891,0.24666891992092133,0.9255555272102356,0.001
0.24970963597297668,0.9300000071525574,0.24656838178634644,0.9255555272102356,0.001
0.23795044422149658,0.9319999814033508,0.24647460877895355,0.9255555272102356,0.001
0.23034749925136566,0.9359999895095825,0.24638620018959045,0.9255555272102356,0.001
0.23854680359363556,0.9380000233650208,0.24625466763973236,0.9255555272102356,0.001
0.2479081153869629,0.9279999732971191,0.2461143434047699,0.925777792930603,0.001
0.2579088807106018,0.9300000071525574,0.24597574770450592,0.925777792930603,0.001
0.23684582114219666,0.9359999895095825,0.24589914083480835,0.925777792930603,0.001
0.253808856010437,0.9259999990463257,0.24580073356628418,0.925777792930603,0.001
0.23274636268615723,0.9340000152587891,0.24565674364566803,0.925777792930603,0.001
0.24155375361442566,0.9359999895095825,0.24557296931743622,0.9255555272102356,0.001
0.2236328274011612,0.9399999976158142,0.24559646844863892,0.9255555272102356,0.001
0.21471218764781952,0.9359999895095825,0.2455068677663803,0.925777792930603,0.001
0.2446499764919281,0.9259999990463257,0.24539270997047424,0.9262222051620483,0.001
0.23153090476989746,0.9340000152587891,0.24529261887073517,0.9262222051620483,0.001
0.24495095014572144,0.9319999814033508,0.24530330300331116,0.9262222051620483,0.001
0.2322710156440735,0.9319999814033508,0.2451009899377823,0.9268888831138611,0.001
0.2430351972579956,0.9319999814033508,0.24501779675483704,0.9268888831138611,0.001
0.24809196591377258,0.9319999814033508,0.24491725862026215,0.9268888831138611,0.001
0.24591055512428284,0.9359999895095825,0.24482563138008118,0.9268888831138611,0.001
0.23582853376865387,0.9340000152587891,0.2447175532579422,0.9271110892295837,0.001
0.23205669224262238,0.9340000152587891,0.24459396302700043,0.9271110892295837,0.001
0.23909805715084076,0.9340000152587891,0.24445076286792755,0.9273333549499512,0.001
0.2442975491285324,0.9279999732971191,0.24431613087654114,0.9273333549499512,0.001
0.24225187301635742,0.9319999814033508,0.24428431689739227,0.9273333549499512,0.001
0.2271355390548706,0.9340000152587891,0.24420735239982605,0.9273333549499512,0.001
0.24650762975215912,0.9319999814033508,0.2440655678510666,0.9273333549499512,0.001
0.23217390477657318,0.9319999814033508,0.24396711587905884,0.9275555610656738,0.001
0.2439448982477188,0.9319999814033508,0.2438395470380783,0.9275555610656738,0.001
0.22709017992019653,0.9340000152587891,0.24375152587890625,0.9275555610656738,0.001
0.2382432222366333,0.9340000152587891,0.2436663955450058,0.9277777671813965,0.001
0.242054283618927,0.9380000233650208,0.2436046004295349,0.9277777671813965,0.001
0.23740632832050323,0.9300000071525574,0.24342678487300873,0.9277777671813965,0.001
0.2386624664068222,0.9340000152587891,0.24332061409950256,0.9279999732971191,0.001
0.2374996840953827,0.9319999814033508,0.24314607679843903,0.9282222390174866,0.001
0.2385094165802002,0.9319999814033508,0.2430308759212494,0.9282222390174866,0.001
0.24936334788799286,0.9279999732971191,0.24293692409992218,0.9284444451332092,0.001
0.23134379088878632,0.9319999814033508,0.24280036985874176,0.9286666512489319,0.001
0.22179388999938965,0.9300000071525574,0.2426319122314453,0.9286666512489319,0.001
0.24488991498947144,0.9340000152587891,0.24256868660449982,0.9286666512489319,0.001
0.22978916764259338,0.9319999814033508,0.24252921342849731,0.9286666512489319,0.001
0.24126219749450684,0.9300000071525574,0.2424418330192566,0.9286666512489319,0.001
0.22736579179763794,0.9300000071525574,0.24236485362052917,0.9286666512489319,0.001
0.23299746215343475,0.9359999895095825,0.24237222969532013,0.9286666512489319,0.001
0.2364771068096161,0.9319999814033508,0.24229274690151215,0.9286666512489319,0.001
0.2279675155878067,0.9340000152587891,0.24216872453689575,0.929111123085022,0.001
0.22621318697929382,0.9279999732971191,0.2420591115951538,0.9288889169692993,0.001
0.224832683801651,0.9359999895095825,0.24196015298366547,0.929111123085022,0.001
0.2255500704050064,0.9359999895095825,0.2419091761112213,0.9293333292007446,0.001
0.242500901222229,0.9319999814033508,0.24173016846179962,0.9293333292007446,0.001
0.2374638468027115,0.9319999814033508,0.24163123965263367,0.9293333292007446,0.001
0.24034401774406433,0.9319999814033508,0.24150818586349487,0.9293333292007446,0.001
0.230433389544487,0.9399999976158142,0.24141159653663635,0.9293333292007446,0.001
0.23076219856739044,0.9380000233650208,0.24125345051288605,0.9293333292007446,0.001
0.24021126329898834,0.9300000071525574,0.24117960035800934,0.9293333292007446,0.001
0.24915075302124023,0.9300000071525574,0.2410741150379181,0.9295555353164673,0.001
0.22549083828926086,0.9359999895095825,0.24105897545814514,0.9293333292007446,0.001
0.23342867195606232,0.9319999814033508,0.240976482629776,0.9295555353164673,0.001
0.23677095770835876,0.9340000152587891,0.24091309309005737,0.9295555353164673,0.001
0.22266259789466858,0.9359999895095825,0.24090264737606049,0.9295555353164673,0.001
0.2433641105890274,0.9279999732971191,0.2408822923898697,0.9295555353164673,0.001
0.23077838122844696,0.9380000233650208,0.2408631145954132,0.9295555353164673,0.001
0.22996054589748383,0.9359999895095825,0.240846186876297,0.9295555353164673,0.001
0.23243996500968933,0.9340000152587891,0.24072837829589844,0.9297778010368347,0.001
0.2402483969926834,0.9259999990463257,0.24071095883846283,0.9297778010368347,0.001
0.22593092918395996,0.9380000233650208,0.24064084887504578,0.9297778010368347,0.001
0.23204264044761658,0.9359999895095825,0.24042344093322754,0.9300000071525574,0.001
0.23544472455978394,0.9340000152587891,0.2403595894575119,0.93022221326828,0.001
0.23044049739837646,0.9359999895095825,0.24029822647571564,0.93022221326828,0.001
0.21924664080142975,0.9340000152587891,0.2402077615261078,0.93022221326828,0.001
0.23522815108299255,0.9340000152587891,0.24018394947052002,0.93022221326828,0.001
0.22459585964679718,0.9359999895095825,0.24012023210525513,0.93022221326828,0.001
0.24011169373989105,0.9359999895095825,0.24006803333759308,0.93022221326828,0.001
0.22167044878005981,0.9359999895095825,0.23999007046222687,0.9304444193840027,0.001
0.2251187413930893,0.9319999814033508,0.23992504179477692,0.9304444193840027,0.001
0.24309703707695007,0.9319999814033508,0.23985596001148224,0.9304444193840027,0.001
0.2308426946401596,0.9380000233650208,0.2397332638502121,0.9306666851043701,0.001
0.22981436550617218,0.9340000152587891,0.23963886499404907,0.9306666851043701,0.001
0.22230291366577148,0.9359999895095825,0.2396310716867447,0.9306666851043701,0.001
0.235386461019516,0.9399999976158142,0.2395840585231781,0.9306666851043701,0.001
0.237919881939888,0.9380000233650208,0.2395053207874298,0.9306666851043701,0.001
0.21867917478084564,0.9319999814033508,0.23943175375461578,0.9306666851043701,0.001
0.22575931251049042,0.9340000152587891,0.2393667846918106,0.9306666851043701,0.001
0.223420187830925,0.9300000071525574,0.23930899798870087,0.9306666851043701,0.001
0.23104016482830048,0.9340000152587891,0.23919875919818878,0.9311110973358154,0.001
0.22407282888889313,0.9319999814033508,0.23917247354984283,0.9311110973358154,0.001
0.23259706795215607,0.9340000152587891,0.2391997128725052,0.9311110973358154,0.001
0.21661953628063202,0.9319999814033508,0.23909339308738708,0.9311110973358154,0.001
0.23252227902412415,0.9359999895095825,0.23897598683834076,0.9311110973358154,0.001
0.2296145260334015,0.9319999814033508,0.23886306583881378,0.9313333630561829,0.001
0.23814119398593903,0.9279999732971191,0.23881079256534576,0.9313333630561829,0.001
0.2273169904947281,0.9419999718666077,0.23876535892486572,0.9313333630561829,0.001
0.23833401501178741,0.9340000152587891,0.2387026846408844,0.9313333630561829,0.001
0.23624595999717712,0.9300000071525574,0.23863370716571808,0.9313333630561829,0.001
0.2207038551568985,0.9340000152587891,0.23857174813747406,0.9313333630561829,0.001
0.21520766615867615,0.9300000071525574,0.23848095536231995,0.9313333630561829,0.001
0.2316710650920868,0.9279999732971191,0.23840844631195068,0.9313333630561829,0.001
0.2107405960559845,0.9419999718666077,0.23835256695747375,0.9313333630561829,0.001
0.21418464183807373,0.9340000152587891,0.23824693262577057,0.9313333630561829,0.001
0.2395193874835968,0.9319999814033508,0.23822620511054993,0.9313333630561829,0.001
0.22114551067352295,0.9380000233650208,0.23814941942691803,0.9315555691719055,0.001
0.23991960287094116,0.9319999814033508,0.23810836672782898,0.9315555691719055,0.001
0.21977196633815765,0.9279999732971191,0.2380293309688568,0.9317777752876282,0.001
0.22116564214229584,0.9319999814033508,0.2378959357738495,0.9317777752876282,0.001
0.22876009345054626,0.9319999814033508,0.23788505792617798,0.9319999814033508,0.001
0.2146437019109726,0.9380000233650208,0.23778803646564484,0.9319999814033508,0.001
0.23760834336280823,0.9359999895095825,0.23767021298408508,0.9319999814033508,0.001
0.21796897053718567,0.9380000233650208,0.2376098930835724,0.9319999814033508,0.001
0.23585763573646545,0.9319999814033508,0.23749572038650513,0.9319999814033508,0.001
0.20607225596904755,0.9359999895095825,0.23748573660850525,0.9319999814033508,0.001
0.23568633198738098,0.9340000152587891,0.23739928007125854,0.9322222471237183,0.001
0.2318677008152008,0.9340000152587891,0.23734062910079956,0.9319999814033508,0.001
0.22522351145744324,0.9359999895095825,0.23737521469593048,0.9319999814033508,0.001
0.232137069106102,0.9279999732971191,0.2372986078262329,0.9322222471237183,0.001
0.22490739822387695,0.9359999895095825,0.23724623024463654,0.9322222471237183,0.001
0.22475866973400116,0.9340000152587891,0.23712508380413055,0.9322222471237183,0.001
0.22740143537521362,0.9340000152587891,0.2370670586824417,0.9322222471237183,0.001
0.24630974233150482,0.9380000233650208,0.2369919717311859,0.9322222471237183,0.001
0.2326822429895401,0.9399999976158142,0.23687925934791565,0.9322222471237183,0.001
0.22944490611553192,0.9359999895095825,0.23678354918956757,0.9322222471237183,0.001
0.22652851045131683,0.9340000152587891,0.23666957020759583,0.9322222471237183,0.001
0.2271965891122818,0.9380000233650208,0.2366180568933487,0.9322222471237183,0.001
0.22335731983184814,0.9359999895095825,0.23654574155807495,0.9322222471237183,0.001
0.22738602757453918,0.9359999895095825,0.23647452890872955,0.9322222471237183,0.001
0.224124014377594,0.9319999814033508,0.23644335567951202,0.9322222471237183,0.001
0.2118920087814331,0.9380000233650208,0.23643776774406433,0.9322222471237183,0.001
0.24191217124462128,0.9319999814033508,0.23634876310825348,0.9324444532394409,0.001
0.22170282900333405,0.9419999718666077,0.2362697422504425,0.9324444532394409,0.001
0.2148084193468094,0.9340000152587891,0.2362532764673233,0.9324444532394409,0.001
0.22406840324401855,0.9340000152587891,0.23619960248470306,0.9324444532394409,0.001
0.22427724301815033,0.9380000233650208,0.2362171709537506,0.9324444532394409,0.001
0.23478397727012634,0.9279999732971191,0.23617304861545563,0.9324444532394409,0.001
0.2144734412431717,0.9380000233650208,0.23610557615756989,0.9324444532394409,0.001
0.22604840993881226,0.9340000152587891,0.2360028773546219,0.9326666593551636,0.001
0.20641058683395386,0.9380000233650208,0.23595771193504333,0.9326666593551636,0.001
0.2226305902004242,0.9419999718666077,0.23589016497135162,0.9326666593551636,0.001
0.21027925610542297,0.9340000152587891,0.23583054542541504,0.9326666593551636,0.001
0.21894471347332,0.9399999976158142,0.23583973944187164,0.9326666593551636,0.001
0.22722642123699188,0.9359999895095825,0.23580969870090485,0.9326666593551636,0.001
0.22271832823753357,0.9319999814033508,0.23571164906024933,0.9326666593551636,0.001
0.2181127816438675,0.9419999718666077,0.2356453686952591,0.9326666593551636,0.001
0.22429916262626648,0.9380000233650208,0.23559679090976715,0.9326666593551636,0.001
0.22313150763511658,0.9380000233650208,0.23562423884868622,0.9326666593551636,0.001
0.2259003072977066,0.9359999895095825,0.2355739176273346,0.9326666593551636,0.001
0.22068917751312256,0.9359999895095825,0.23556673526763916,0.9326666593551636,0.001
0.22020277380943298,0.9319999814033508,0.23548603057861328,0.9328888654708862,0.001
0.22254355251789093,0.9399999976158142,0.23548296093940735,0.9328888654708862,0.001
0.21350358426570892,0.9380000233650208,0.23543375730514526,0.9328888654708862,0.001
0.20693568885326385,0.9380000233650208,0.2353866696357727,0.9328888654708862,0.001
0.2239908128976822,0.9419999718666077,0.23533037304878235,0.9328888654708862,0.001
0.21988451480865479,0.9359999895095825,0.23523375391960144,0.9328888654708862,0.001
0.2100740373134613,0.9419999718666077,0.23523369431495667,0.9328888654708862,0.001
0.224330335855484,0.9380000233650208,0.23516617715358734,0.9328888654708862,0.001
0.20190057158470154,0.9359999895095825,0.23508301377296448,0.9328888654708862,0.001
0.21988998353481293,0.9440000057220459,0.235045924782753,0.9328888654708862,0.001
0.22508779168128967,0.9359999895095825,0.2350403070449829,0.9328888654708862,0.001
0.22168119251728058,0.9279999732971191,0.23492811620235443,0.9328888654708862,0.001
0.21748855710029602,0.9380000233650208,0.23483061790466309,0.9328888654708862,0.001
0.21647648513317108,0.9399999976158142,0.2347874939441681,0.9331111311912537,0.001
0.22457696497440338,0.9380000233650208,0.23473744094371796,0.9331111311912537,0.001
0.22066013514995575,0.9340000152587891,0.23469674587249756,0.9331111311912537,0.001
0.22186966240406036,0.9380000233650208,0.2346501499414444,0.9331111311912537,0.001
0.21201132237911224,0.9380000233650208,0.23464401066303253,0.9331111311912537,0.001
0.21696600317955017,0.9380000233650208,0.23455017805099487,0.9331111311912537,0.001
0.22875872254371643,0.9300000071525574,0.23447491228580475,0.9331111311912537,0.001
0.2190701812505722,0.9380000233650208,0.23442132771015167,0.9331111311912537,0.001
0.216508150100708,0.9399999976158142,0.23446893692016602,0.9331111311912537,0.001
0.22502505779266357,0.9340000152587891,0.23439987003803253,0.9331111311912537,0.001
0.21766939759254456,0.9319999814033508,0.23434564471244812,0.9331111311912537,0.001
0.2085069715976715,0.9399999976158142,0.2343367040157318,0.9331111311912537,0.001
0.22252613306045532,0.9359999895095825,0.23427259922027588,0.9331111311912537,0.001
0.2292027473449707,0.9340000152587891,0.2341717928647995,0.9331111311912537,0.001
0.22419749200344086,0.9380000233650208,0.234117791056633,0.9331111311912537,0.001
0.2307012975215912,0.9279999732971191,0.23411805927753448,0.9331111311912537,0.001
0.2212153822183609,0.9399999976158142,0.23405520617961884,0.9331111311912537,0.001
0.21358245611190796,0.9380000233650208,0.23399370908737183,0.9331111311912537,0.001
0.22441726922988892,0.9380000233650208,0.23393334448337555,0.9331111311912537,0.001
0.20156645774841309,0.9419999718666077,0.23388712108135223,0.9331111311912537,0.001
0.21759431064128876,0.9340000152587891,0.23379622399806976,0.9331111311912537,0.001
0.21668851375579834,0.9380000233650208,0.23372377455234528,0.9331111311912537,0.001
0.22365662455558777,0.9399999976158142,0.23365788161754608,0.9331111311912537,0.001
0.2247060388326645,0.9340000152587891,0.23361344635486603,0.9331111311912537,0.001
0.2274206280708313,0.9359999895095825,0.23354779183864594,0.9331111311912537,0.001
0.22222432494163513,0.9380000233650208,0.2334562987089157,0.9331111311912537,0.001
0.22665254771709442,0.9380000233650208,0.23340806365013123,0.9331111311912537,0.001
0.21694336831569672,0.9340000152587891,0.23332950472831726,0.9331111311912537,0.001
0.22311532497406006,0.9340000152587891,0.2332388311624527,0.9331111311912537,0.001
0.2124808132648468,0.9419999718666077,0.23316194117069244,0.9331111311912537,0.001
0.2044098675251007,0.9340000152587891,0.23312678933143616,0.9331111311912537,0.001
0.22442695498466492,0.9380000233650208,0.23303887248039246,0.9331111311912537,0.001
0.2138035148382187,0.9419999718666077,0.23300398886203766,0.9331111311912537,0.001
0.20883475244045258,0.9380000233650208,0.23292851448059082,0.9331111311912537,0.001
0.21953187882900238,0.9340000152587891,0.23285993933677673,0.9331111311912537,0.001
0.21212515234947205,0.9340000152587891,0.23280596733093262,0.9331111311912537,0.001
0.21814601123332977,0.9399999976158142,0.2327982634305954,0.9331111311912537,0.001
0.2061476856470108,0.9419999718666077,0.2327505648136139,0.9331111311912537,0.001
0.21914751827716827,0.9359999895095825,0.2327031046152115,0.9331111311912537,0.001
0.2220241278409958,0.9319999814033508,0.23265931010246277,0.9331111311912537,0.001
0.23497508466243744,0.9359999895095825,0.2326158881187439,0.9331111311912537,0.001
0.19847503304481506,0.9399999976158142,0.2326110303401947,0.9331111311912537,0.001
0.21776241064071655,0.9380000233650208,0.23257307708263397,0.9331111311912537,0.001
0.21888482570648193,0.9300000071525574,0.23250561952590942,0.9331111311912537,0.001
0.22357358038425446,0.9440000057220459,0.23242241144180298,0.9331111311912537,0.001
0.20368263125419617,0.9399999976158142,0.23234404623508453,0.9331111311912537,0.001
0.2039703130722046,0.9380000233650208,0.2323445975780487,0.9331111311912537,0.001
0.2148476243019104,0.9399999976158142,0.23229765892028809,0.9331111311912537,0.001
0.21791090071201324,0.9359999895095825,0.23221512138843536,0.9331111311912537,0.001
0.21619562804698944,0.9359999895095825,0.23222558200359344,0.9331111311912537,0.001
0.21217404305934906,0.9419999718666077,0.23217852413654327,0.9333333373069763,0.001
0.22038917243480682,0.9340000152587891,0.2322012484073639,0.9333333373069763,0.001
0.21181894838809967,0.9340000152587891,0.2321622669696808,0.9333333373069763,0.001
0.21228428184986115,0.9399999976158142,0.23214803636074066,0.9333333373069763,0.001
0.22457653284072876,0.9399999976158142,0.23205848038196564,0.9333333373069763,0.001
0.21172761917114258,0.9380000233650208,0.23201856017112732,0.9333333373069763,0.001
0.21129530668258667,0.9359999895095825,0.23194731771945953,0.9333333373069763,0.001
0.21677173674106598,0.9359999895095825,0.2318902462720871,0.9333333373069763,0.001
0.22128449380397797,0.9340000152587891,0.23184838891029358,0.9333333373069763,0.001
0.21441465616226196,0.9399999976158142,0.23185096681118011,0.9333333373069763,0.001
0.22318106889724731,0.9359999895095825,0.2318413108587265,0.9333333373069763,0.001
0.21125343441963196,0.9399999976158142,0.2317819893360138,0.9333333373069763,0.001
0.2043064385652542,0.9399999976158142,0.2317478507757187,0.933555543422699,0.001
0.22361673414707184,0.9300000071525574,0.23161466419696808,0.933555543422699,0.001
0.21492864191532135,0.9380000233650208,0.23158973455429077,0.933555543422699,0.001
0.218098983168602,0.9319999814033508,0.23156307637691498,0.933555543422699,0.001
0.21009378135204315,0.9459999799728394,0.23152123391628265,0.933555543422699,0.001
0.20727325975894928,0.9359999895095825,0.23149004578590393,0.933555543422699,0.001
0.20989909768104553,0.9340000152587891,0.231401726603508,0.933555543422699,0.001
0.21592703461647034,0.9359999895095825,0.2313489019870758,0.933555543422699,0.001
0.20759056508541107,0.9399999976158142,0.2313431203365326,0.933555543422699,0.001
0.20766454935073853,0.9300000071525574,0.23123417794704437,0.9337777495384216,0.001
0.19674450159072876,0.9419999718666077,0.23126687109470367,0.9340000152587891,0.001
0.21618503332138062,0.9380000233650208,0.23123760521411896,0.9340000152587891,0.001
0.22519928216934204,0.9340000152587891,0.23116357624530792,0.9340000152587891,0.001
0.2241167277097702,0.9359999895095825,0.231117844581604,0.9337777495384216,0.001
0.2153194546699524,0.9399999976158142,0.2310612052679062,0.9337777495384216,0.001
0.21458356082439423,0.9359999895095825,0.23106689751148224,0.9337777495384216,0.001
0.21587464213371277,0.9340000152587891,0.2310204803943634,0.9340000152587891,0.001
0.2209276705980301,0.9380000233650208,0.23102083802223206,0.9342222213745117,0.001
0.22612962126731873,0.9340000152587891,0.23093973100185394,0.9342222213745117,0.001
0.23018112778663635,0.9359999895095825,0.23077525198459625,0.9342222213745117,0.001
0.20708778500556946,0.9419999718666077,0.23072637617588043,0.9342222213745117,0.001
0.2183827906847,0.9300000071525574,0.23068977892398834,0.9342222213745117,0.001
0.20929613709449768,0.9419999718666077,0.23071636259555817,0.9342222213745117,0.001
0.21875207126140594,0.9340000152587891,0.2306564897298813,0.9342222213745117,0.001
0.2172340750694275,0.9340000152587891,0.2306310534477234,0.9342222213745117,0.001
0.22742390632629395,0.9419999718666077,0.23054617643356323,0.9342222213745117,0.001
0.2127903699874878,0.9419999718666077,0.23049896955490112,0.9342222213745117,0.001
0.23070105910301208,0.9340000152587891,0.23039816319942474,0.9342222213745117,0.001
0.20620127022266388,0.9340000152587891,0.23038530349731445,0.9342222213745117,0.001
0.22174732387065887,0.9380000233650208,0.2303648591041565,0.9342222213745117,0.001
0.21173368394374847,0.9380000233650208,0.2303900271654129,0.9342222213745117,0.001
0.20069988071918488,0.9359999895095825,0.23039627075195312,0.9342222213745117,0.001
0.20073004066944122,0.9359999895095825,0.23035253584384918,0.9342222213745117,0.001
0.2208556830883026,0.9380000233650208,0.23027227818965912,0.9342222213745117,0.001
0.2131733000278473,0.9419999718666077,0.23020190000534058,0.9342222213745117,0.001
0.22034841775894165,0.9319999814033508,0.23017752170562744,0.9342222213745117,0.001
0.21161441504955292,0.9380000233650208,0.23017309606075287,0.9342222213745117,0.001
0.21126548945903778,0.9359999895095825,0.23014125227928162,0.9344444274902344,0.001
0.22198671102523804,0.9399999976158142,0.23011153936386108,0.9344444274902344,0.001
0.21979565918445587,0.9419999718666077,0.23008927702903748,0.9344444274902344,0.001
0.21792161464691162,0.9399999976158142,0.23008835315704346,0.9344444274902344,0.001
0.2160916030406952,0.9419999718666077,0.23006616532802582,0.9346666932106018,0.001
0.20832835137844086,0.9440000057220459,0.23005685210227966,0.9346666932106018,0.001
0.21935567259788513,0.9319999814033508,0.22996559739112854,0.9346666932106018,0.001
0.21554288268089294,0.9380000233650208,0.2298910915851593,0.9346666932106018,0.001
0.21628722548484802,0.9300000071525574,0.2298121154308319,0.9346666932106018,0.001
0.20100776851177216,0.9399999976158142,0.22978192567825317,0.9346666932106018,0.001
0.20547297596931458,0.9380000233650208,0.2297506034374237,0.9346666932106018,0.001
0.20841366052627563,0.9340000152587891,0.2297600656747818,0.9346666932106018,0.001
0.19784079492092133,0.9419999718666077,0.22974036633968353,0.9346666932106018,0.001
0.20555275678634644,0.9419999718666077,0.22973711788654327,0.9346666932106018,0.001
0.2251729667186737,0.9319999814033508,0.22968438267707825,0.9346666932106018,0.001
0.20695903897285461,0.9419999718666077,0.22964662313461304,0.9346666932106018,0.001
0.21682040393352509,0.9380000233650208,0.2296554148197174,0.9346666932106018,0.001
0.2126050591468811,0.9359999895095825,0.2295984923839569,0.9346666932106018,0.001
0.2160540223121643,0.9340000152587891,0.2295607626438141,0.9346666932106018,0.001
0.22317443788051605,0.9399999976158142,0.22954000532627106,0.9346666932106018,0.001
0.21392200887203217,0.9359999895095825,0.229471817612648,0.9346666932106018,0.001
0.20272204279899597,0.9480000138282776,0.2294989675283432,0.9346666932106018,0.001
0.2090914100408554,0.9399999976158142,0.22949281334877014,0.9346666932106018,0.001
0.20011617243289948,0.9359999895095825,0.22951628267765045,0.9346666932106018,0.001
0.2121334671974182,0.9340000152587891,0.22943614423274994,0.9346666932106018,0.001
0.20215699076652527,0.9380000233650208,0.22937150299549103,0.9346666932106018,0.001
0.20916937291622162,0.9399999976158142,0.22932937741279602,0.9346666932106018,0.001
0.21050289273262024,0.9399999976158142,0.22933246195316315,0.9346666932106018,0.001
0.21138131618499756,0.9380000233650208,0.22929492592811584,0.9346666932106018,0.001
0.19641079008579254,0.9399999976158142,0.22927893698215485,0.9346666932106018,0.001
0.21063323318958282,0.9340000152587891,0.22919081151485443,0.9346666932106018,0.001
0.20803934335708618,0.9359999895095825,0.22916367650032043,0.9346666932106018,0.001
0.2132340967655182,0.9380000233650208,0.22911979258060455,0.9346666932106018,0.001
0.2167835831642151,0.9419999718666077,0.22908805310726166,0.9346666932106018,0.001
0.21052631735801697,0.9359999895095825,0.22904567420482635,0.9346666932106018,0.001
0.19960476458072662,0.9380000233650208,0.22904299199581146,0.9346666932106018,0.001
0.20528540015220642,0.9380000233650208,0.22910326719284058,0.9346666932106018,0.001
0.21589376032352448,0.9359999895095825,0.22902406752109528,0.9346666932106018,0.001
0.20600703358650208,0.9399999976158142,0.22899265587329865,0.9346666932106018,0.001
0.21740761399269104,0.9340000152587891,0.22893044352531433,0.9346666932106018,0.001
0.21846623718738556,0.9419999718666077,0.22890079021453857,0.9346666932106018,0.001
0.20682930946350098,0.9399999976158142,0.22882308065891266,0.9346666932106018,0.001
0.20155903697013855,0.9380000233650208,0.22878387570381165,0.9346666932106018,0.001
0.19808349013328552,0.9480000138282776,0.2287808656692505,0.9346666932106018,0.001
0.19539642333984375,0.9399999976158142,0.22871717810630798,0.9346666932106018,0.001
0.20613890886306763,0.9380000233650208,0.2286158800125122,0.9346666932106018,0.001
0.1935381144285202,0.9359999895095825,0.2285904735326767,0.9346666932106018,0.001
0.2220725566148758,0.9340000152587891,0.22853206098079681,0.9346666932106018,0.001
0.20554816722869873,0.9419999718666077,0.22849500179290771,0.9346666932106018,0.001
0.1996622234582901,0.9340000152587891,0.22846351563930511,0.9346666932106018,0.001
0.21849295496940613,0.9359999895095825,0.2284115105867386,0.9346666932106018,0.001
0.20762643218040466,0.9319999814033508,0.2283553034067154,0.9348888993263245,0.001
0.22838693857192993,0.9340000152587891,0.22825448215007782,0.9348888993263245,0.001
0.20538310706615448,0.9419999718666077,0.2282378226518631,0.9348888993263245,0.001
0.20477797091007233,0.9419999718666077,0.22818122804164886,0.9348888993263245,0.001
0.20481038093566895,0.9399999976158142,0.2281828075647354,0.9348888993263245,0.001
0.20914168655872345,0.9359999895095825,0.2281179130077362,0.9348888993263245,0.001
0.2005782425403595,0.9380000233650208,0.22806130349636078,0.9348888993263245,0.001
0.20974652469158173,0.9380000233650208,0.2280026525259018,0.9348888993263245,0.001
0.21051235496997833,0.9380000233650208,0.22796118259429932,0.9348888993263245,0.001
0.20321008563041687,0.9419999718666077,0.22793856263160706,0.9348888993263245,0.001
0.20382054150104523,0.9399999976158142,0.22794462740421295,0.9348888993263245,0.001
0.21043869853019714,0.9399999976158142,0.2278812676668167,0.9348888993263245,0.001
0.20543433725833893,0.9359999895095825,0.22779414057731628,0.9348888993263245,0.001
0.2129833996295929,0.9419999718666077,0.22778499126434326,0.9348888993263245,0.001
0.19403475522994995,0.9419999718666077,0.22773057222366333,0.9348888993263245,0.001
0.1993681639432907,0.9319999814033508,0.22768282890319824,0.9348888993263245,0.001
0.22049440443515778,0.9419999718666077,0.22766311466693878,0.9348888993263245,0.001
0.194803386926651,0.9440000057220459,0.22766083478927612,0.9348888993263245,0.001
0.2085791528224945,0.9399999976158142,0.22768324613571167,0.9348888993263245,0.001
0.1910621076822281,0.9459999799728394,0.22770054638385773,0.9348888993263245,0.001
0.20542487502098083,0.9399999976158142,0.2276681512594223,0.9348888993263245,0.001
0.22582904994487762,0.9340000152587891,0.22766165435314178,0.9348888993263245,0.001
0.19306106865406036,0.9419999718666077,0.22765964269638062,0.9348888993263245,0.001
0.19521783292293549,0.9440000057220459,0.22769568860530853,0.9348888993263245,0.001
0.1900758445262909,0.9440000057220459,0.22768060863018036,0.9348888993263245,0.001
0.20279891788959503,0.9440000057220459,0.2275887280702591,0.9348888993263245,0.001
0.21357573568820953,0.9380000233650208,0.2275364249944687,0.9348888993263245,0.001
0.19913773238658905,0.9399999976158142,0.2274853140115738,0.9348888993263245,0.001
0.20541250705718994,0.9359999895095825,0.22743019461631775,0.9348888993263245,0.001
0.2233089953660965,0.9359999895095825,0.2273426353931427,0.9348888993263245,0.001
0.20456688106060028,0.9419999718666077,0.22728712856769562,0.9348888993263245,0.001
0.21182148158550262,0.9399999976158142,0.2272787243127823,0.9348888993263245,0.001
0.21856002509593964,0.9380000233650208,0.2272011786699295,0.9348888993263245,0.001
0.18940049409866333,0.9419999718666077,0.2271614521741867,0.9348888993263245,0.001
0.21366921067237854,0.9319999814033508,0.22715862095355988,0.9348888993263245,0.001
0.22392061352729797,0.9340000152587891,0.22707544267177582,0.9348888993263245,0.001
0.19306208193302155,0.9380000233650208,0.22701501846313477,0.9348888993263245,0.001
0.21968626976013184,0.9380000233650208,0.22697408497333527,0.9348888993263245,0.001
0.21268600225448608,0.9419999718666077,0.22694788873195648,0.9348888993263245,0.001
0.1988479644060135,0.9459999799728394,0.22693873941898346,0.9348888993263245,0.001
0.20656231045722961,0.9399999976158142,0.22689379751682281,0.9351111054420471,0.001
0.2076721042394638,0.9459999799728394,0.22684447467327118,0.9351111054420471,0.001
0.2009623944759369,0.9419999718666077,0.22684690356254578,0.9351111054420471,0.001
0.2146821767091751,0.9359999895095825,0.22682048380374908,0.9351111054420471,0.001
0.2059263288974762,0.9399999976158142,0.22679394483566284,0.9351111054420471,0.001
0.20756827294826508,0.9399999976158142,0.22679275274276733,0.9351111054420471,0.001
0.20729684829711914,0.9340000152587891,0.2268073856830597,0.9351111054420471,0.001
0.18942366540431976,0.9399999976158142,0.2267836630344391,0.9351111054420471,0.001
0.20067617297172546,0.9459999799728394,0.22675688564777374,0.9351111054420471,0.001
0.20967614650726318,0.9399999976158142,0.22669552266597748,0.9351111054420471,0.001
0.20369462668895721,0.9399999976158142,0.22674760222434998,0.9351111054420471,0.001
0.20818118751049042,0.9419999718666077,0.22676235437393188,0.9351111054420471,0.001
0.21008750796318054,0.9440000057220459,0.22668111324310303,0.9351111054420471,0.001
0.19960178434848785,0.9340000152587891,0.2266669124364853,0.9351111054420471,0.001
0.20573793351650238,0.9399999976158142,0.22666338086128235,0.9351111054420471,0.001
0.18917199969291687,0.9399999976158142,0.2265675961971283,0.9351111054420471,0.001
0.1975294053554535,0.9399999976158142,0.22654634714126587,0.9351111054420471,0.001
0.19483354687690735,0.9399999976158142,0.22647161781787872,0.9351111054420471,0.001
0.20217165350914001,0.9459999799728394,0.22642357647418976,0.9351111054420471,0.001
0.21488609910011292,0.9419999718666077,0.22643041610717773,0.9351111054420471,0.001
0.1974164992570877,0.9399999976158142,0.22640454769134521,0.9351111054420471,0.001
0.2131694257259369,0.9359999895095825,0.2263355404138565,0.9351111054420471,0.001
0.19582070410251617,0.9419999718666077,0.22630459070205688,0.9351111054420471,0.001
0.21303384006023407,0.9419999718666077,0.22626686096191406,0.9351111054420471,0.001
0.19972968101501465,0.9419999718666077,0.22625543177127838,0.9351111054420471,0.001
0.2018710970878601,0.9380000233650208,0.226255401968956,0.9351111054420471,0.001
0.20531322062015533,0.9399999976158142,0.22625769674777985,0.9351111054420471,0.001
0.20058169960975647,0.9440000057220459,0.2261928766965866,0.9351111054420471,0.001
0.2206813395023346,0.9359999895095825,0.22621403634548187,0.9351111054420471,0.001
0.1972770392894745,0.9480000138282776,0.22619210183620453,0.9351111054420471,0.001
0.18979106843471527,0.9459999799728394,0.22622478008270264,0.9351111054420471,0.001
0.2004285603761673,0.9399999976158142,0.22621774673461914,0.9351111054420471,0.001
0.2106345295906067,0.9419999718666077,0.22623437643051147,0.9351111054420471,0.001
0.21400724351406097,0.9440000057220459,0.22614090144634247,0.9351111054420471,0.001
0.20633500814437866,0.9399999976158142,0.2260928452014923,0.9351111054420471,0.001
0.202595517039299,0.9380000233650208,0.22605234384536743,0.9351111054420471,0.001
0.19988614320755005,0.9399999976158142,0.2260574847459793,0.9351111054420471,0.001
0.21128928661346436,0.9419999718666077,0.2260894626379013,0.9351111054420471,0.001
0.21239398419857025,0.9359999895095825,0.226096510887146,0.9351111054420471,0.001
0.19825147092342377,0.9440000057220459,0.22609005868434906,0.9351111054420471,0.001
0.20645278692245483,0.9340000152587891,0.22606393694877625,0.9351111054420471,0.001
0.19532008469104767,0.9419999718666077,0.22608645260334015,0.9351111054420471,0.001
0.21425610780715942,0.9380000233650208,0.22606782615184784,0.9351111054420471,0.001
0.1955408751964569,0.9419999718666077,0.22605662047863007,0.9351111054420471,0.001
0.1964404433965683,0.9440000057220459,0.22601178288459778,0.9351111054420471,0.001
0.21033407747745514,0.9399999976158142,0.22599561512470245,0.9351111054420471,0.001
0.20542728900909424,0.9419999718666077,0.22596122324466705,0.9353333115577698,0.001
0.19996151328086853,0.9380000233650208,0.22593043744564056,0.9353333115577698,0.001
0.19591504335403442,0.9380000233650208,0.22596579790115356,0.9353333115577698,0.001
0.2055037021636963,0.9419999718666077,0.22598984837532043,0.9353333115577698,0.001
0.20954911410808563,0.9399999976158142,0.22597357630729675,0.9353333115577698,0.001
0.19036506116390228,0.9359999895095825,0.22593967616558075,0.9353333115577698,0.001
0.18601247668266296,0.9440000057220459,0.22597326338291168,0.9353333115577698,0.001
0.18368032574653625,0.9399999976158142,0.22592277824878693,0.9353333115577698,0.001
0.20391279458999634,0.9399999976158142,0.22593845427036285,0.9353333115577698,0.001
0.20202623307704926,0.9440000057220459,0.22590497136116028,0.9353333115577698,0.001
0.19868697226047516,0.9419999718666077,0.22586826980113983,0.9353333115577698,0.001
0.20477817952632904,0.9419999718666077,0.22584493458271027,0.9353333115577698,0.001
0.20752426981925964,0.9419999718666077,0.225753054022789,0.9353333115577698,0.001
0.20378266274929047,0.9399999976158142,0.22575736045837402,0.9353333115577698,0.001
0.18904761970043182,0.9480000138282776,0.22576861083507538,0.9353333115577698,0.001
0.2033882439136505,0.9380000233650208,0.22575873136520386,0.9353333115577698,0.001
0.20177172124385834,0.9340000152587891,0.2257612943649292,0.9353333115577698,0.001
0.19750995934009552,0.9399999976158142,0.22577622532844543,0.9353333115577698,0.001
0.21044430136680603,0.9380000233650208,0.22572383284568787,0.9353333115577698,0.001
0.1992325633764267,0.9440000057220459,0.22565433382987976,0.9353333115577698,0.001
0.2015475630760193,0.9399999976158142,0.22563189268112183,0.9353333115577698,0.001
0.2002926617860794,0.9399999976158142,0.22561100125312805,0.9353333115577698,0.001
0.1953258216381073,0.9399999976158142,0.225569486618042,0.9353333115577698,0.001
0.20386190712451935,0.9380000233650208,0.22553151845932007,0.9353333115577698,0.001
0.20402933657169342,0.9440000057220459,0.22549186646938324,0.9353333115577698,0.001
0.20158232748508453,0.9359999895095825,0.22543907165527344,0.9355555772781372,0.001
0.20194484293460846,0.9459999799728394,0.22544074058532715,0.9355555772781372,0.001
0.21913127601146698,0.9340000152587891,0.22541996836662292,0.9355555772781372,0.001
0.20658116042613983,0.9359999895095825,0.22537972033023834,0.9355555772781372,0.001
0.20855841040611267,0.9419999718666077,0.22538381814956665,0.9355555772781372,0.001
0.2098667025566101,0.9359999895095825,0.2253575623035431,0.9355555772781372,0.001
0.19576145708560944,0.9440000057220459,0.2253289818763733,0.9355555772781372,0.001
0.19950200617313385,0.9419999718666077,0.22529219090938568,0.9355555772781372,0.001
0.1962297558784485,0.9399999976158142,0.22525735199451447,0.9355555772781372,0.001
0.1839292049407959,0.949999988079071,0.2253057211637497,0.9355555772781372,0.001
0.19991840422153473,0.9399999976158142,0.22530128061771393,0.9355555772781372,0.001
0.19341103732585907,0.9440000057220459,0.2252703160047531,0.9355555772781372,0.001
0.19237247109413147,0.9459999799728394,0.22529608011245728,0.9355555772781372,0.001
0.20681948959827423,0.9459999799728394,0.22529247403144836,0.9355555772781372,0.001
0.20356380939483643,0.9459999799728394,0.22530126571655273,0.9355555772781372,0.001
0.20496247708797455,0.9419999718666077,0.22527842223644257,0.9355555772781372,0.001
0.2018391489982605,0.9440000057220459,0.22522282600402832,0.9355555772781372,0.001
0.1922880858182907,0.9380000233650208,0.22523657977581024,0.9355555772781372,0.001
0.2121528834104538,0.9419999718666077,0.22523444890975952,0.9355555772781372,0.001
0.19646640121936798,0.9399999976158142,0.22521522641181946,0.9355555772781372,0.001
0.2016482949256897,0.9380000233650208,0.22520124912261963,0.9355555772781372,0.001
0.1996660679578781,0.9419999718666077,0.22513408958911896,0.9355555772781372,0.001
0.18122602999210358,0.9419999718666077,0.22515790164470673,0.9355555772781372,0.001
0.2031848430633545,0.9419999718666077,0.22517253458499908,0.9355555772781372,0.001
0.193111389875412,0.9399999976158142,0.22517703473567963,0.9355555772781372,0.001
0.18783824145793915,0.9459999799728394,0.22522161900997162,0.9355555772781372,0.001
0.2152964174747467,0.9419999718666077,0.2252439558506012,0.9355555772781372,0.001
0.2099437415599823,0.9380000233650208,0.2251354306936264,0.9355555772781372,0.001
0.2068789154291153,0.9399999976158142,0.2250557392835617,0.9355555772781372,0.001
0.21748977899551392,0.9399999976158142,0.22505460679531097,0.9355555772781372,0.001
0.19844293594360352,0.9380000233650208,0.225019171833992,0.9355555772781372,0.001
0.20014722645282745,0.9380000233650208,0.2249353528022766,0.9355555772781372,0.001
0.19631247222423553,0.9359999895095825,0.2248477339744568,0.9355555772781372,0.001
0.20850105583667755,0.9340000152587891,0.22484859824180603,0.9355555772781372,0.001
0.18899349868297577,0.9459999799728394,0.22482392191886902,0.9355555772781372,0.001
0.1938145011663437,0.9440000057220459,0.2247822880744934,0.9355555772781372,0.001
0.20364679396152496,0.9399999976158142,0.22479374706745148,0.9355555772781372,0.001
0.1920110285282135,0.9380000233650208,0.2247719168663025,0.9355555772781372,0.001
0.19643232226371765,0.9459999799728394,0.22474105656147003,0.9355555772781372,0.001
0.20825201272964478,0.9380000233650208,0.22466610372066498,0.9355555772781372,0.001
0.20755861699581146,0.9399999976158142,0.22468678653240204,0.9355555772781372,0.001
0.19388099014759064,0.9459999799728394,0.22468093037605286,0.9359999895095825,0.001
0.2085670679807663,0.9399999976158142,0.22464388608932495,0.9359999895095825,0.001
0.20599514245986938,0.9340000152587891,0.2245655655860901,0.9359999895095825,0.001
0.18585513532161713,0.9380000233650208,0.22454966604709625,0.9359999895095825,0.001
0.18918558955192566,0.9419999718666077,0.22445006668567657,0.9359999895095825,0.001
0.19487264752388,0.9440000057220459,0.22441980242729187,0.9359999895095825,0.001
0.18945804238319397,0.9459999799728394,0.22440141439437866,0.9359999895095825,0.001
0.18945488333702087,0.9380000233650208,0.22438372671604156,0.9359999895095825,0.001
0.20508882403373718,0.9399999976158142,0.22437144815921783,0.9359999895095825,0.001
0.19468580186367035,0.9419999718666077,0.224373459815979,0.9359999895095825,0.001
0.20269422233104706,0.9399999976158142,0.22434309124946594,0.9359999895095825,0.001
0.19027502834796906,0.949999988079071,0.22432896494865417,0.9364444613456726,0.001
0.19295960664749146,0.9380000233650208,0.22429080307483673,0.9364444613456726,0.001
0.19519008696079254,0.9380000233650208,0.22426550090312958,0.9364444613456726,0.001
0.19794639945030212,0.9399999976158142,0.2242426723241806,0.9364444613456726,0.001
0.19498653709888458,0.9399999976158142,0.22419077157974243,0.9364444613456726,0.001
0.1937166452407837,0.9419999718666077,0.22419466078281403,0.9364444613456726,0.001
0.189618781208992,0.9399999976158142,0.22422794997692108,0.9364444613456726,0.001
0.19473512470722198,0.9440000057220459,0.22420677542686462,0.9364444613456726,0.001
0.20525066554546356,0.9419999718666077,0.22419345378875732,0.9364444613456726,0.001
0.19194652140140533,0.9419999718666077,0.2241823822259903,0.9364444613456726,0.001
0.209673210978508,0.9399999976158142,0.22420716285705566,0.9364444613456726,0.001
0.20666474103927612,0.9359999895095825,0.22416146099567413,0.9362221956253052,0.001
0.18471023440361023,0.949999988079071,0.22418704628944397,0.9362221956253052,0.001
0.17697270214557648,0.9440000057220459,0.22423696517944336,0.9359999895095825,0.001
0.19090381264686584,0.9440000057220459,0.22427989542484283,0.9359999895095825,0.001
0.19706368446350098,0.9419999718666077,0.2242574393749237,0.9362221956253052,0.001
0.1890997588634491,0.9440000057220459,0.22422288358211517,0.9362221956253052,0.001
0.19993701577186584,0.9459999799728394,0.22420012950897217,0.9362221956253052,0.001
0.18556800484657288,0.9419999718666077,0.2242305725812912,0.9362221956253052,0.001
0.1907828450202942,0.9419999718666077,0.2241901159286499,0.9362221956253052,0.001
0.18551895022392273,0.9419999718666077,0.22411128878593445,0.9364444613456726,0.001
0.18345746397972107,0.9419999718666077,0.2240232229232788,0.9364444613456726,0.001
0.19640152156352997,0.9419999718666077,0.22395853698253632,0.9364444613456726,0.001
0.2026199847459793,0.9380000233650208,0.22391270101070404,0.9364444613456726,0.001
0.21143290400505066,0.9380000233650208,0.22386392951011658,0.9364444613456726,0.001
0.2000446915626526,0.949999988079071,0.22382327914237976,0.9364444613456726,0.001
0.194198340177536,0.9440000057220459,0.22378040850162506,0.9364444613456726,0.001
0.20109789073467255,0.9440000057220459,0.22381757199764252,0.9364444613456726,0.001
0.19147032499313354,0.9440000057220459,0.22384916245937347,0.9364444613456726,0.001
0.2157948613166809,0.9399999976158142,0.22383667528629303,0.9366666674613953,0.001
0.19576239585876465,0.9419999718666077,0.22382532060146332,0.9366666674613953,0.001
0.21282342076301575,0.9459999799728394,0.22375421226024628,0.9366666674613953,0.001
0.17775942385196686,0.9480000138282776,0.22372490167617798,0.9366666674613953,0.001
0.19189372658729553,0.9459999799728394,0.22372202575206757,0.9366666674613953,0.001
0.20664651691913605,0.9399999976158142,0.2236696183681488,0.9366666674613953,0.001
0.20237384736537933,0.9380000233650208,0.2236005663871765,0.9368888735771179,0.001
0.20114953815937042,0.9459999799728394,0.22361961007118225,0.9368888735771179,0.001
0.1929600089788437,0.9480000138282776,0.223581925034523,0.9366666674613953,0.001
0.2054179310798645,0.9419999718666077,0.22351251542568207,0.9366666674613953,0.001
0.19548927247524261,0.9440000057220459,0.22346927225589752,0.9366666674613953,0.001
0.1997562050819397,0.9419999718666077,0.22343677282333374,0.9366666674613953,0.001
0.20487236976623535,0.9399999976158142,0.22341150045394897,0.9366666674613953,0.001
0.1949806660413742,0.9380000233650208,0.22343237698078156,0.9368888735771179,0.001
0.18498839437961578,0.9359999895095825,0.2234172224998474,0.9368888735771179,0.001
0.20539604127407074,0.9440000057220459,0.22337855398654938,0.9368888735771179,0.001
0.19660621881484985,0.9440000057220459,0.22336696088314056,0.9368888735771179,0.001
0.20346778631210327,0.9419999718666077,0.2233152985572815,0.9368888735771179,0.001
0.197679802775383,0.9399999976158142,0.22330732643604279,0.9371111392974854,0.001
0.19576053321361542,0.9399999976158142,0.22325380146503448,0.9371111392974854,0.001
0.2143481820821762,0.9399999976158142,0.2231912761926651,0.9371111392974854,0.001
0.21016553044319153,0.9399999976158142,0.22313588857650757,0.9371111392974854,0.001
0.19883055984973907,0.9419999718666077,0.2231246381998062,0.9371111392974854,0.001
0.18930581212043762,0.9459999799728394,0.22308789193630219,0.937333345413208,0.001
0.19527727365493774,0.9399999976158142,0.22304505109786987,0.937333345413208,0.001
0.19986280798912048,0.9399999976158142,0.2229657620191574,0.937333345413208,0.001
0.18982380628585815,0.9419999718666077,0.22291900217533112,0.937333345413208,0.001
0.1879473477602005,0.9440000057220459,0.22288952767848969,0.937333345413208,0.001
0.2053099125623703,0.9399999976158142,0.22282589972019196,0.937333345413208,0.001
0.18040581047534943,0.9440000057220459,0.222863107919693,0.937333345413208,0.001
0.18519358336925507,0.9419999718666077,0.22282719612121582,0.937333345413208,0.001
0.17910878360271454,0.949999988079071,0.22285915911197662,0.937333345413208,0.001
0.188134104013443,0.9419999718666077,0.22283935546875,0.937333345413208,0.001
0.20222829282283783,0.9419999718666077,0.22282442450523376,0.937333345413208,0.001
0.2022029459476471,0.9399999976158142,0.22283564507961273,0.937333345413208,0.001
0.18272970616817474,0.9440000057220459,0.22281891107559204,0.937333345413208,0.001
0.18617373704910278,0.9480000138282776,0.22282283008098602,0.937333345413208,0.001
0.20115023851394653,0.949999988079071,0.2227889746427536,0.937333345413208,0.001
0.19039899110794067,0.9380000233650208,0.22275803983211517,0.9375555515289307,0.001
0.1897047460079193,0.9399999976158142,0.22275984287261963,0.9375555515289307,0.001
0.1762860119342804,0.9520000219345093,0.22276075184345245,0.937333345413208,0.001
0.1900654435157776,0.9440000057220459,0.22276893258094788,0.937333345413208,0.001
0.1906013786792755,0.9380000233650208,0.2227691411972046,0.937333345413208,0.001
0.19952574372291565,0.9459999799728394,0.22278189659118652,0.937333345413208,0.001
0.18086770176887512,0.9480000138282776,0.22280217707157135,0.937333345413208,0.001
0.20133356750011444,0.9340000152587891,0.22278305888175964,0.9371111392974854,0.001
0.2036575824022293,0.9459999799728394,0.22274285554885864,0.937333345413208,0.001
0.19557906687259674,0.9419999718666077,0.22273051738739014,0.9371111392974854,0.001
0.19773328304290771,0.9419999718666077,0.22270087897777557,0.9371111392974854,0.001
0.19216886162757874,0.9419999718666077,0.22269994020462036,0.937333345413208,0.001
0.20120297372341156,0.9399999976158142,0.2227078527212143,0.937333345413208,0.001
0.20038919150829315,0.9380000233650208,0.22263960540294647,0.937333345413208,0.001
0.18892836570739746,0.9459999799728394,0.22266902029514313,0.9371111392974854,0.001
0.19464372098445892,0.9399999976158142,0.2225942760705948,0.9371111392974854,0.001
0.1868615299463272,0.9419999718666077,0.22253577411174774,0.9371111392974854,0.001
0.19550606608390808,0.9459999799728394,0.222531259059906,0.9371111392974854,0.001
0.19559653103351593,0.9380000233650208,0.22251899540424347,0.9371111392974854,0.001
0.2007555365562439,0.9440000057220459,0.22248707711696625,0.9371111392974854,0.001
0.1837916374206543,0.9419999718666077,0.22246727347373962,0.9371111392974854,0.001
0.19874484837055206,0.9399999976158142,0.22240056097507477,0.9371111392974854,0.001
0.19880488514900208,0.9419999718666077,0.22240979969501495,0.9371111392974854,0.001
0.18766172230243683,0.9380000233650208,0.22237668931484222,0.9371111392974854,0.001
0.19762323796749115,0.9459999799728394,0.22231969237327576,0.9377777576446533,0.001
0.19102534651756287,0.9380000233650208,0.22233784198760986,0.9377777576446533,0.001
0.18908578157424927,0.9459999799728394,0.22232107818126678,0.9377777576446533,0.001
0.17862199246883392,0.9520000219345093,0.222274050116539,0.9377777576446533,0.001
0.18529626727104187,0.9459999799728394,0.22227132320404053,0.9377777576446533,0.001
0.19395621120929718,0.949999988079071,0.22224296629428864,0.9377777576446533,0.001
0.18447397649288177,0.9459999799728394,0.2221744805574417,0.9380000233650208,0.001
0.1930062621831894,0.9359999895095825,0.22216418385505676,0.9380000233650208,0.001
0.1945527046918869,0.9459999799728394,0.22213217616081238,0.9380000233650208,0.001
0.19801421463489532,0.9399999976158142,0.22217421233654022,0.9380000233650208,0.001
0.19198845326900482,0.9419999718666077,0.22217689454555511,0.9380000233650208,0.001
0.18834824860095978,0.9459999799728394,0.2221871316432953,0.9380000233650208,0.001
0.19721290469169617,0.9419999718666077,0.2221975177526474,0.9380000233650208,0.001
0.18565276265144348,0.9399999976158142,0.22219401597976685,0.9380000233650208,0.001
0.1970202922821045,0.9459999799728394,0.22218561172485352,0.9380000233650208,0.001
0.20454218983650208,0.9419999718666077,0.22213490307331085,0.9377777576446533,0.001
0.18699276447296143,0.9399999976158142,0.22212018072605133,0.9380000233650208,0.001
0.17969748377799988,0.9419999718666077,0.2221609503030777,0.9380000233650208,0.001
0.1936161071062088,0.9380000233650208,0.22217793762683868,0.9377777576446533,0.001
0.20703907310962677,0.9399999976158142,0.2221086025238037,0.9377777576446533,0.001
0.1933722198009491,0.9399999976158142,0.22216922044754028,0.9377777576446533,0.001
0.19659797847270966,0.9440000057220459,0.2220603972673416,0.9377777576446533,0.001
0.18542563915252686,0.9419999718666077,0.22199895977973938,0.9377777576446533,0.001
0.18547165393829346,0.9459999799728394,0.22196701169013977,0.9377777576446533,0.001
0.17675764858722687,0.9459999799728394,0.22196200489997864,0.9380000233650208,0.001
0.19531825184822083,0.9459999799728394,0.2219572514295578,0.9380000233650208,0.001
0.2015591561794281,0.9359999895095825,0.22196021676063538,0.9380000233650208,0.001
0.18146662414073944,0.9459999799728394,0.22193562984466553,0.9377777576446533,0.001
0.18682081997394562,0.9480000138282776,0.22191183269023895,0.9377777576446533,0.001
0.16729453206062317,0.9440000057220459,0.22193491458892822,0.9377777576446533,0.001
0.19508154690265656,0.9419999718666077,0.22195187211036682,0.9377777576446533,0.001
0.1869973987340927,0.9440000057220459,0.22194641828536987,0.9382222294807434,0.001
0.19495265185832977,0.9459999799728394,0.22195705771446228,0.9382222294807434,0.001
0.18313013017177582,0.9459999799728394,0.22195100784301758,0.9382222294807434,0.001
0.18939819931983948,0.9459999799728394,0.22195081412792206,0.9382222294807434,0.001
0.17529980838298798,0.9399999976158142,0.22195245325565338,0.9382222294807434,0.001
0.19416096806526184,0.9480000138282776,0.22195664048194885,0.9382222294807434,0.001
0.1947522759437561,0.9399999976158142,0.2219894379377365,0.9382222294807434,0.001
0.2115936279296875,0.9419999718666077,0.2220117449760437,0.9380000233650208,0.001
0.17839449644088745,0.9539999961853027,0.22206738591194153,0.9380000233650208,0.001
0.17975345253944397,0.9440000057220459,0.22201833128929138,0.9382222294807434,0.001
0.19495035707950592,0.9480000138282776,0.22202996909618378,0.9382222294807434,0.001
0.18519911170005798,0.9480000138282776,0.22207185626029968,0.9380000233650208,0.001
0.2076335847377777,0.9419999718666077,0.2220250815153122,0.9382222294807434,0.001
0.1957930475473404,0.9480000138282776,0.22199173271656036,0.9382222294807434,0.001
0.1812397837638855,0.9440000057220459,0.2219560593366623,0.9382222294807434,0.001
0.20508310198783875,0.9419999718666077,0.22184836864471436,0.9382222294807434,0.001
0.19497355818748474,0.9459999799728394,0.22180068492889404,0.9382222294807434,0.001
0.19228650629520416,0.9440000057220459,0.22177724540233612,0.9382222294807434,0.001
0.18279287219047546,0.9459999799728394,0.22178541123867035,0.9382222294807434,0.001
0.187980517745018,0.9419999718666077,0.2217419147491455,0.9382222294807434,0.001
0.1796099990606308,0.9419999718666077,0.22172261774539948,0.9382222294807434,0.001
0.19748710095882416,0.9440000057220459,0.2216724306344986,0.9382222294807434,0.001
0.19223390519618988,0.9399999976158142,0.22163695096969604,0.9382222294807434,0.001
0.19146770238876343,0.9419999718666077,0.22159531712532043,0.9382222294807434,0.001
0.18008331954479218,0.9419999718666077,0.22158129513263702,0.9382222294807434,0.001
0.19041001796722412,0.9480000138282776,0.22158417105674744,0.9382222294807434,0.001
0.1977626234292984,0.9419999718666077,0.22160132229328156,0.9382222294807434,0.001
0.18409551680088043,0.9419999718666077,0.2215544730424881,0.9382222294807434,0.001
0.1810668557882309,0.9440000057220459,0.22153058648109436,0.9382222294807434,0.001
0.18578587472438812,0.9480000138282776,0.2215397208929062,0.9382222294807434,0.001
0.18226994574069977,0.9459999799728394,0.22153735160827637,0.9382222294807434,0.001
0.1790589839220047,0.9480000138282776,0.22149254381656647,0.9382222294807434,0.001
0.1900830715894699,0.9440000057220459,0.2214963138103485,0.9382222294807434,0.001
0.2010224312543869,0.9399999976158142,0.22149363160133362,0.9382222294807434,0.001
0.19688774645328522,0.949999988079071,0.22149473428726196,0.9382222294807434,0.001
0.20177939534187317,0.9440000057220459,0.22143805027008057,0.9382222294807434,0.001
0.19145803153514862,0.9440000057220459,0.2213684469461441,0.9382222294807434,0.001
0.1867859661579132,0.9440000057220459,0.22133371233940125,0.9382222294807434,0.001
0.18431082367897034,0.9399999976158142,0.22137123346328735,0.9384444355964661,0.001
0.20294170081615448,0.9399999976158142,0.22131198644638062,0.9384444355964661,0.001
0.1859682947397232,0.9480000138282776,0.2213091105222702,0.9384444355964661,0.001
0.1871911734342575,0.9480000138282776,0.22134946286678314,0.9384444355964661,0.001
0.2040383517742157,0.9399999976158142,0.2213791459798813,0.9384444355964661,0.001
0.20464779436588287,0.9359999895095825,0.2213374674320221,0.9384444355964661,0.001
0.19319798052310944,0.9419999718666077,0.221308171749115,0.9384444355964661,0.001
0.18907545506954193,0.9480000138282776,0.22133894264698029,0.9384444355964661,0.001
0.17675603926181793,0.9419999718666077,0.22136741876602173,0.9384444355964661,0.001
0.1904996633529663,0.9440000057220459,0.22140271961688995,0.9384444355964661,0.001
0.17857155203819275,0.9380000233650208,0.22140143811702728,0.9384444355964661,0.001
0.17798787355422974,0.9419999718666077,0.22142067551612854,0.9384444355964661,0.001
0.19415701925754547,0.9419999718666077,0.22142203152179718,0.9384444355964661,0.001
0.1933276653289795,0.9359999895095825,0.22143448889255524,0.9384444355964661,0.001
0.18825997412204742,0.9440000057220459,0.2214014232158661,0.9384444355964661,0.001
0.1976630687713623,0.9399999976158142,0.22138017416000366,0.9384444355964661,0.001
0.18607938289642334,0.9399999976158142,0.22135265171527863,0.9384444355964661,0.001
0.1948726326227188,0.9480000138282776,0.22134676575660706,0.9384444355964661,0.001
0.19958733022212982,0.9380000233650208,0.22135473787784576,0.9384444355964661,0.001
0.18384160101413727,0.9440000057220459,0.221299409866333,0.9384444355964661,0.001
0.1967223733663559,0.9399999976158142,0.2213100790977478,0.9386666417121887,0.001
0.19139014184474945,0.9440000057220459,0.22128215432167053,0.9386666417121887,0.001
0.1969052255153656,0.9419999718666077,0.22127290070056915,0.9386666417121887,0.001
0.19770902395248413,0.9399999976158142,0.22124998271465302,0.9386666417121887,0.001
0.17702151834964752,0.9419999718666077,0.22119922935962677,0.9386666417121887,0.001
0.19327139854431152,0.9399999976158142,0.22120912373065948,0.9386666417121887,0.001
0.19009798765182495,0.9459999799728394,0.22118087112903595,0.9386666417121887,0.001
0.17777162790298462,0.949999988079071,0.22109004855155945,0.9386666417121887,0.001
0.1814711093902588,0.9459999799728394,0.22109434008598328,0.9386666417121887,0.001
0.17256920039653778,0.9480000138282776,0.22105929255485535,0.9386666417121887,0.001
0.17463257908821106,0.9419999718666077,0.2209339290857315,0.9386666417121887,0.001
0.1778251677751541,0.9480000138282776,0.22086453437805176,0.9386666417121887,0.001
0.19660957157611847,0.9459999799728394,0.2209061086177826,0.9386666417121887,0.001
0.17416663467884064,0.9480000138282776,0.22093860805034637,0.9386666417121887,0.001
0.20156283676624298,0.9459999799728394,0.22089546918869019,0.9386666417121887,0.001
0.18157298862934113,0.949999988079071,0.22091123461723328,0.9386666417121887,0.001
0.1909499168395996,0.9480000138282776,0.2209194451570511,0.9386666417121887,0.001
0.19270256161689758,0.9520000219345093,0.22093991935253143,0.9386666417121887,0.001
0.17527537047863007,0.9419999718666077,0.22090016305446625,0.9386666417121887,0.001
0.17036017775535583,0.9480000138282776,0.2208799570798874,0.9386666417121887,0.001
0.17844568192958832,0.9440000057220459,0.22085408866405487,0.9386666417121887,0.001
0.18308109045028687,0.9440000057220459,0.22081902623176575,0.9386666417121887,0.001
0.18943360447883606,0.9419999718666077,0.22075088322162628,0.9386666417121887,0.001
0.1832544356584549,0.9440000057220459,0.220739483833313,0.9386666417121887,0.001
0.19054864346981049,0.9399999976158142,0.22071346640586853,0.9386666417121887,0.001
0.1818055361509323,0.9440000057220459,0.22071626782417297,0.9386666417121887,0.001
0.20694036781787872,0.9399999976158142,0.22070477902889252,0.9386666417121887,0.001
0.18572792410850525,0.9459999799728394,0.2207249104976654,0.9386666417121887,0.001
0.1769566535949707,0.9520000219345093,0.22076503932476044,0.9386666417121887,0.001
0.1966560184955597,0.949999988079071,0.2207079529762268,0.9386666417121887,0.001
0.18410541117191315,0.9459999799728394,0.22072850167751312,0.9386666417121887,0.001
0.18550004065036774,0.9459999799728394,0.2207276076078415,0.9386666417121887,0.001
0.18089956045150757,0.9459999799728394,0.2207108587026596,0.9386666417121887,0.001
0.19262608885765076,0.9419999718666077,0.2206668108701706,0.9386666417121887,0.001
0.18869556486606598,0.9440000057220459,0.22066305577754974,0.9386666417121887,0.001
0.19107896089553833,0.9480000138282776,0.2206723839044571,0.9386666417121887,0.001
0.17080985009670258,0.9480000138282776,0.2206610143184662,0.9386666417121887,0.001
0.1801050901412964,0.9419999718666077,0.22068172693252563,0.9386666417121887,0.001
0.17271199822425842,0.949999988079071,0.22068500518798828,0.9386666417121887,0.001
0.17712807655334473,0.9440000057220459,0.22067254781723022,0.9386666417121887,0.001
0.19328738749027252,0.9419999718666077,0.22063928842544556,0.9386666417121887,0.001
0.19389742612838745,0.9459999799728394,0.2205883264541626,0.9386666417121887,0.001
0.17763455212116241,0.9399999976158142,0.22060349583625793,0.9386666417121887,0.001
0.17595647275447845,0.9419999718666077,0.22055943310260773,0.9386666417121887,0.001
0.17809341847896576,0.9380000233650208,0.2205449342727661,0.9386666417121887,0.001
0.19884470105171204,0.9440000057220459,0.22060152888298035,0.9386666417121887,0.001
0.18579961359500885,0.9459999799728394,0.2206277847290039,0.9386666417121887,0.001
0.18465203046798706,0.9440000057220459,0.22067046165466309,0.9386666417121887,0.001
0.18336986005306244,0.9459999799728394,0.2207033485174179,0.9386666417121887,0.001
0.1765478402376175,0.9459999799728394,0.22060559689998627,0.9386666417121887,0.001
0.17783541977405548,0.9440000057220459,0.2206278145313263,0.9386666417121887,0.001
0.18350006639957428,0.9480000138282776,0.22063742578029633,0.9386666417121887,0.001
0.18690554797649384,0.9440000057220459,0.2206457555294037,0.9386666417121887,0.001
0.17853759229183197,0.9480000138282776,0.22061137855052948,0.9386666417121887,0.001
0.17719964683055878,0.949999988079071,0.22057843208312988,0.9386666417121887,0.001
0.18622496724128723,0.9440000057220459,0.2205493152141571,0.9386666417121887,0.001
0.18796120584011078,0.949999988079071,0.2205149084329605,0.9386666417121887,0.001
0.18799306452274323,0.9440000057220459,0.22048123180866241,0.9386666417121887,0.001
0.18673188984394073,0.9480000138282776,0.22042371332645416,0.9386666417121887,0.001
0.19983597099781036,0.9459999799728394,0.2203984558582306,0.9386666417121887,0.001
0.17819124460220337,0.949999988079071,0.22038522362709045,0.9388889074325562,0.001
0.19021016359329224,0.9380000233650208,0.2204117774963379,0.9388889074325562,0.001
0.1886747181415558,0.9359999895095825,0.22039012610912323,0.9388889074325562,0.001
0.17816555500030518,0.9440000057220459,0.2204132229089737,0.9388889074325562,0.001
0.1813293844461441,0.9440000057220459,0.22039544582366943,0.9388889074325562,0.001
0.1843501627445221,0.9419999718666077,0.22037959098815918,0.9388889074325562,0.001
0.1772637516260147,0.949999988079071,0.22035054862499237,0.9388889074325562,0.001
0.18783773481845856,0.9419999718666077,0.2203720510005951,0.9388889074325562,0.001
0.19380544126033783,0.9459999799728394,0.22034470736980438,0.9388889074325562,0.001
0.17547182738780975,0.9440000057220459,0.22033530473709106,0.9388889074325562,0.001
0.18178828060626984,0.9459999799728394,0.22033965587615967,0.9388889074325562,0.001
0.18812231719493866,0.9440000057220459,0.22034648060798645,0.9388889074325562,0.001
0.18183188140392303,0.9480000138282776,0.22034820914268494,0.9388889074325562,0.001
0.17545147240161896,0.9480000138282776,0.22041554749011993,0.9388889074325562,0.001
0.18186667561531067,0.9459999799728394,0.22044891119003296,0.9388889074325562,0.001
0.1757340133190155,0.9459999799728394,0.2204410284757614,0.9388889074325562,0.001
0.1818133294582367,0.9480000138282776,0.22035907208919525,0.9388889074325562,0.001
0.19171485304832458,0.9419999718666077,0.2203608602285385,0.9388889074325562,0.001
0.18020997941493988,0.9459999799728394,0.22038622200489044,0.9388889074325562,0.001
0.17593318223953247,0.9480000138282776,0.2203633040189743,0.9388889074325562,0.001
0.1812439113855362,0.9459999799728394,0.22030411660671234,0.9388889074325562,0.001
0.18441468477249146,0.9419999718666077,0.22035790979862213,0.9388889074325562,0.001
0.18655923008918762,0.949999988079071,0.22033073008060455,0.9388889074325562,0.001
0.18853996694087982,0.9419999718666077,0.22033114731311798,0.9388889074325562,0.001
0.19830183684825897,0.9340000152587891,0.2202351987361908,0.9388889074325562,0.001
0.17582465708255768,0.9459999799728394,0.22021877765655518,0.9391111135482788,0.001
0.1904686689376831,0.9380000233650208,0.220159649848938,0.9391111135482788,0.001
0.18502666056156158,0.9480000138282776,0.2201886773109436,0.9391111135482788,0.001
0.20288634300231934,0.9459999799728394,0.2201487421989441,0.9388889074325562,0.001
0.18161389231681824,0.9459999799728394,0.22008267045021057,0.9388889074325562,0.001
0.19912251830101013,0.9419999718666077,0.22004783153533936,0.9391111135482788,0.001
0.18110398948192596,0.9459999799728394,0.22006864845752716,0.9391111135482788,0.001
0.18024878203868866,0.9359999895095825,0.22001326084136963,0.9388889074325562,0.001
0.17556090652942657,0.949999988079071,0.2199489176273346,0.9388889074325562,0.001
0.17855992913246155,0.9440000057220459,0.2198987752199173,0.9388889074325562,0.001
0.1897411346435547,0.9380000233650208,0.21991130709648132,0.9388889074325562,0.001
0.1782975196838379,0.9480000138282776,0.21991123259067535,0.9388889074325562,0.001
0.18085728585720062,0.9459999799728394,0.21991293132305145,0.9388889074325562,0.001
0.18486738204956055,0.9480000138282776,0.21986660361289978,0.9388889074325562,0.001
0.17527538537979126,0.9480000138282776,0.21986356377601624,0.9388889074325562,0.001
0.17537818849086761,0.9480000138282776,0.2198740839958191,0.9388889074325562,0.001
0.18446117639541626,0.9380000233650208,0.21987006068229675,0.9388889074325562,0.001
0.17653201520442963,0.9380000233650208,0.21985192596912384,0.9388889074325562,0.001
0.1799093335866928,0.9520000219345093,0.21982328593730927,0.9388889074325562,0.001
0.16851159930229187,0.9480000138282776,0.2198103368282318,0.9391111135482788,0.001
0.18058151006698608,0.9480000138282776,0.21979692578315735,0.9388889074325562,0.001
0.1752661168575287,0.9380000233650208,0.2198256254196167,0.9386666417121887,0.001
0.17555731534957886,0.9480000138282776,0.2197640985250473,0.9386666417121887,0.001
0.18435785174369812,0.9440000057220459,0.21975086629390717,0.9386666417121887,0.001
0.1785827875137329,0.9440000057220459,0.21970108151435852,0.9386666417121887,0.001
0.19675642251968384,0.9459999799728394,0.21969389915466309,0.9386666417121887,0.001
0.18074233829975128,0.9419999718666077,0.21969960629940033,0.9386666417121887,0.001
0.17757348716259003,0.9480000138282776,0.2196640968322754,0.9386666417121887,0.001
0.18438474833965302,0.949999988079071,0.21961551904678345,0.9386666417121887,0.001
0.1880740523338318,0.9480000138282776,0.2195684164762497,0.9386666417121887,0.001
0.16822154819965363,0.949999988079071,0.2195289582014084,0.9386666417121887,0.001
0.1698843240737915,0.9419999718666077,0.2195754051208496,0.9386666417121887,0.001
0.19624127447605133,0.9480000138282776,0.2195349633693695,0.9386666417121887,0.001
0.17451587319374084,0.9480000138282776,0.21950869262218475,0.9386666417121887,0.001
0.186036616563797,0.9459999799728394,0.21948719024658203,0.9386666417121887,0.001
0.1728299856185913,0.9440000057220459,0.21948036551475525,0.9386666417121887,0.001
0.18839843571186066,0.9459999799728394,0.21951965987682343,0.9388889074325562,0.001
0.17925120890140533,0.9459999799728394,0.21946518123149872,0.9388889074325562,0.001
0.17490209639072418,0.9480000138282776,0.21943727135658264,0.9388889074325562,0.001
0.18182812631130219,0.9480000138282776,0.21939398348331451,0.9388889074325562,0.001
0.1877349317073822,0.9419999718666077,0.21942539513111115,0.9388889074325562,0.001
0.17388437688350677,0.9520000219345093,0.21941392123699188,0.9388889074325562,0.001
0.19014203548431396,0.9419999718666077,0.21941015124320984,0.9391111135482788,0.001
0.1912803202867508,0.9459999799728394,0.21937896311283112,0.9391111135482788,0.001
0.1845623105764389,0.9459999799728394,0.21939623355865479,0.9391111135482788,0.001
0.17163558304309845,0.9520000219345093,0.21938200294971466,0.9391111135482788,0.001
0.18025833368301392,0.9440000057220459,0.2193404883146286,0.9391111135482788,0.001
0.178132563829422,0.9459999799728394,0.2193104773759842,0.9388889074325562,0.001
0.1828470677137375,0.9459999799728394,0.2193441241979599,0.9391111135482788,0.001
0.17746847867965698,0.9440000057220459,0.21936465799808502,0.9391111135482788,0.001
0.1797664314508438,0.9419999718666077,0.21932092308998108,0.9391111135482788,0.001
0.18607190251350403,0.9380000233650208,0.2193465679883957,0.9391111135482788,0.001
0.19436395168304443,0.9459999799728394,0.2192513644695282,0.9391111135482788,0.001
0.1902327686548233,0.9440000057220459,0.21924233436584473,0.9391111135482788,0.001
0.1685175597667694,0.949999988079071,0.21923179924488068,0.9391111135482788,0.001
0.1810404509305954,0.9480000138282776,0.21924102306365967,0.9391111135482788,0.001
0.17725470662117004,0.9480000138282776,0.21920038759708405,0.9391111135482788,0.001
0.18203750252723694,0.9480000138282776,0.21915915608406067,0.9391111135482788,0.001
0.20250079035758972,0.9380000233650208,0.21921731531620026,0.9391111135482788,0.001
0.19845661520957947,0.9459999799728394,0.21921510994434357,0.9391111135482788,0.001
0.19124820828437805,0.9480000138282776,0.2191600501537323,0.9391111135482788,0.001
0.18101276457309723,0.9520000219345093,0.21917641162872314,0.9391111135482788,0.001
0.18879787623882294,0.9480000138282776,0.21913625299930573,0.9391111135482788,0.001
0.19138923287391663,0.9440000057220459,0.21906417608261108,0.9395555257797241,0.001
0.17454904317855835,0.949999988079071,0.21904748678207397,0.9395555257797241,0.001
0.19487003982067108,0.9440000057220459,0.21897268295288086,0.9395555257797241,0.001
0.17412696778774261,0.9520000219345093,0.21897214651107788,0.9395555257797241,0.001
0.1814810186624527,0.9419999718666077,0.21901722252368927,0.9395555257797241,0.001
0.18228532373905182,0.9520000219345093,0.2189648449420929,0.9395555257797241,0.001
0.1867033690214157,0.9480000138282776,0.21892960369586945,0.9393333196640015,0.001
0.1850794404745102,0.9419999718666077,0.21889303624629974,0.9393333196640015,0.001
0.18482868373394012,0.9480000138282776,0.21894711256027222,0.9393333196640015,0.001
0.1835954189300537,0.9419999718666077,0.21892547607421875,0.9393333196640015,0.001
0.17365843057632446,0.9459999799728394,0.21888233721256256,0.9393333196640015,0.001
0.17940135300159454,0.9480000138282776,0.2188512086868286,0.9393333196640015,0.001
0.1718972623348236,0.9480000138282776,0.21882537007331848,0.9393333196640015,0.001
0.18096107244491577,0.9459999799728394,0.2188081294298172,0.9393333196640015,0.001
0.1846802532672882,0.9520000219345093,0.21883097290992737,0.9393333196640015,0.001
0.1832113415002823,0.9480000138282776,0.2188194990158081,0.9393333196640015,0.001
0.18698708713054657,0.9480000138282776,0.21879272162914276,0.9393333196640015,0.001
0.18372347950935364,0.949999988079071,0.21881672739982605,0.9393333196640015,0.001
0.17840756475925446,0.9440000057220459,0.21883326768875122,0.9395555257797241,0.001
0.17588086426258087,0.9459999799728394,0.21883483231067657,0.9395555257797241,0.001
0.17612071335315704,0.9539999961853027,0.21889029443264008,0.9395555257797241,0.001
0.1801837980747223,0.9440000057220459,0.21887576580047607,0.9395555257797241,0.001
0.17630258202552795,0.9459999799728394,0.2188480794429779,0.9395555257797241,0.001
0.17444802820682526,0.9459999799728394,0.21886605024337769,0.9395555257797241,0.001
0.18072299659252167,0.9419999718666077,0.21887315809726715,0.9395555257797241,0.001
0.16116932034492493,0.9520000219345093,0.2188909500837326,0.9395555257797241,0.001
0.18396605551242828,0.9459999799728394,0.2188943326473236,0.9395555257797241,0.001
0.17563506960868835,0.9440000057220459,0.2189529538154602,0.9395555257797241,0.001
0.1876191347837448,0.949999988079071,0.21889126300811768,0.9395555257797241,0.001
0.17475295066833496,0.9459999799728394,0.21885946393013,0.9395555257797241,0.001
0.177196204662323,0.9459999799728394,0.21881631016731262,0.9395555257797241,0.001
0.18906272947788239,0.9440000057220459,0.21876250207424164,0.9397777915000916,0.001
0.17242227494716644,0.9480000138282776,0.21880842745304108,0.9395555257797241,0.001
0.19765940308570862,0.9380000233650208,0.21877984702587128,0.9399999976158142,0.001
0.1846243292093277,0.9459999799728394,0.2187512069940567,0.9399999976158142,0.001
0.17811527848243713,0.9559999704360962,0.21871653199195862,0.9399999976158142,0.001
0.18292544782161713,0.9440000057220459,0.21868117153644562,0.9399999976158142,0.001
0.16513065993785858,0.949999988079071,0.2186736762523651,0.9399999976158142,0.001
0.18222443759441376,0.9480000138282776,0.21866144239902496,0.9399999976158142,0.001
0.17094933986663818,0.949999988079071,0.21867021918296814,0.9399999976158142,0.001
0.17530976235866547,0.9480000138282776,0.21863755583763123,0.9404444694519043,0.001
0.19070112705230713,0.9380000233650208,0.21857082843780518,0.9404444694519043,0.001
0.16078291833400726,0.9580000042915344,0.21853049099445343,0.9402222037315369,0.001
0.17845577001571655,0.949999988079071,0.21849627792835236,0.9404444694519043,0.001
0.17451003193855286,0.9480000138282776,0.218467116355896,0.9404444694519043,0.001
0.17342878878116608,0.949999988079071,0.21846982836723328,0.9404444694519043,0.001
0.18376484513282776,0.9440000057220459,0.218448668718338,0.940666675567627,0.001
0.16210971772670746,0.949999988079071,0.21843548119068146,0.9404444694519043,0.001
0.18286022543907166,0.9459999799728394,0.21842360496520996,0.940666675567627,0.001
0.17372649908065796,0.9520000219345093,0.21840569376945496,0.940666675567627,0.001
0.16734066605567932,0.9440000057220459,0.2183828204870224,0.9404444694519043,0.001
0.1826326847076416,0.9459999799728394,0.2183786779642105,0.940666675567627,0.001
0.1860107183456421,0.9440000057220459,0.21838007867336273,0.940666675567627,0.001
0.18444524705410004,0.9399999976158142,0.21832403540611267,0.940666675567627,0.001
0.16598398983478546,0.9480000138282776,0.21831008791923523,0.9408888816833496,0.001
0.17583754658699036,0.9459999799728394,0.21825464069843292,0.9408888816833496,0.001
0.16857443749904633,0.949999988079071,0.21827736496925354,0.9408888816833496,0.001
0.16773925721645355,0.9440000057220459,0.2183229774236679,0.9408888816833496,0.001
0.17468340694904327,0.949999988079071,0.21822890639305115,0.9408888816833496,0.001
0.16519272327423096,0.9459999799728394,0.2182607650756836,0.9408888816833496,0.001
0.17220473289489746,0.949999988079071,0.2182670384645462,0.9408888816833496,0.001
0.19295647740364075,0.9459999799728394,0.21825039386749268,0.9408888816833496,0.001
0.18752014636993408,0.9359999895095825,0.21824364364147186,0.9411110877990723,0.001
0.17929017543792725,0.9480000138282776,0.2182437926530838,0.9411110877990723,0.001
0.18668140470981598,0.9480000138282776,0.21824674308300018,0.9411110877990723,0.001
0.18661920726299286,0.9440000057220459,0.21821296215057373,0.9413333535194397,0.001
0.16753970086574554,0.9520000219345093,0.2182445377111435,0.9413333535194397,0.001
0.1777687966823578,0.9440000057220459,0.2182575762271881,0.9413333535194397,0.001
0.16089515388011932,0.949999988079071,0.2182827740907669,0.9411110877990723,0.001
0.19405117630958557,0.9480000138282776,0.21833069622516632,0.9411110877990723,0.001
0.1760897934436798,0.9480000138282776,0.21836845576763153,0.9411110877990723,0.001
0.19235122203826904,0.9440000057220459,0.21835756301879883,0.9411110877990723,0.001
0.17550122737884521,0.9480000138282776,0.2183772623538971,0.9411110877990723,0.001
0.1729964017868042,0.9480000138282776,0.2183564305305481,0.9411110877990723,0.001
0.1833789199590683,0.9480000138282776,0.21836477518081665,0.9411110877990723,0.001
0.18396426737308502,0.9480000138282776,0.21832384169101715,0.9411110877990723,0.001
0.17647354304790497,0.9480000138282776,0.21831224858760834,0.9413333535194397,0.001
0.17690949141979218,0.9419999718666077,0.21825873851776123,0.9413333535194397,0.001
0.1709079146385193,0.949999988079071,0.2182496339082718,0.9413333535194397,0.001
0.1794368177652359,0.949999988079071,0.21822090446949005,0.9413333535194397,0.001
0.1902092844247818,0.9459999799728394,0.21821977198123932,0.9413333535194397,0.001
0.1733768731355667,0.9440000057220459,0.21817223727703094,0.9413333535194397,0.001
0.1768062263727188,0.9419999718666077,0.21817606687545776,0.9413333535194397,0.001
0.19667136669158936,0.9459999799728394,0.21818067133426666,0.9413333535194397,0.001
0.16137821972370148,0.9440000057220459,0.21823883056640625,0.9413333535194397,0.001
0.1696937084197998,0.9480000138282776,0.2182660847902298,0.9413333535194397,0.001
0.1775675266981125,0.9459999799728394,0.21827638149261475,0.9413333535194397,0.001
0.17001467943191528,0.9459999799728394,0.21829523146152496,0.9413333535194397,0.001
0.15988947451114655,0.9480000138282776,0.21829231083393097,0.9413333535194397,0.001
0.18292732536792755,0.9440000057220459,0.21829566359519958,0.9413333535194397,0.001
0.1657549887895584,0.949999988079071,0.21827735006809235,0.9413333535194397,0.001
0.17306920886039734,0.949999988079071,0.218302920460701,0.9411110877990723,0.001
0.17271164059638977,0.9459999799728394,0.21830599009990692,0.9411110877990723,0.001
0.1834408938884735,0.9440000057220459,0.21830855309963226,0.9413333535194397,0.001
0.1845453530550003,0.9520000219345093,0.21831412613391876,0.9411110877990723,0.001
0.1659437119960785,0.949999988079071,0.2183484435081482,0.9411110877990723,0.001
0.15680237114429474,0.949999988079071,0.21827858686447144,0.9413333535194397,0.001
0.16445697844028473,0.9520000219345093,0.21826328337192535,0.9413333535194397,0.001
0.17070123553276062,0.9480000138282776,0.21824277937412262,0.9413333535194397,0.001
0.17074814438819885,0.9480000138282776,0.2182403802871704,0.9413333535194397,0.001
0.17623843252658844,0.9520000219345093,0.21826328337192535,0.9413333535194397,0.001
0.17624101042747498,0.9520000219345093,0.21828407049179077,0.9415555596351624,0.001
0.18413914740085602,0.9480000138282776,0.2182803750038147,0.9415555596351624,0.001
0.17568756639957428,0.949999988079071,0.218297079205513,0.9413333535194397,0.001
0.1680360585451126,0.9520000219345093,0.21837036311626434,0.9413333535194397,0.001
0.1706361621618271,0.949999988079071,0.2183304727077484,0.9413333535194397,0.001
0.17970062792301178,0.949999988079071,0.21830560266971588,0.9413333535194397,0.001
0.17198069393634796,0.9539999961853027,0.2183404564857483,0.9413333535194397,0.001
0.17107349634170532,0.9520000219345093,0.21832816302776337,0.9413333535194397,0.001
0.17564480006694794,0.9459999799728394,0.21831312775611877,0.9413333535194397,0.001
0.17428003251552582,0.9459999799728394,0.21827563643455505,0.9413333535194397,0.001
0.18017883598804474,0.9480000138282776,0.2182324230670929,0.9415555596351624,0.001
0.18316935002803802,0.9440000057220459,0.21827960014343262,0.9413333535194397,0.001
0.18923957645893097,0.9480000138282776,0.21830575168132782,0.9413333535194397,0.001
0.1662701666355133,0.949999988079071,0.21828047931194305,0.9413333535194397,0.001
0.18217827379703522,0.9440000057220459,0.21827244758605957,0.9415555596351624,0.001
0.16606168448925018,0.9419999718666077,0.21828638017177582,0.9413333535194397,0.001
0.16800864040851593,0.9480000138282776,0.21825411915779114,0.9413333535194397,0.001
0.16388235986232758,0.949999988079071,0.21830043196678162,0.9413333535194397,0.001
0.17871762812137604,0.9520000219345093,0.2183106541633606,0.9413333535194397,0.001
0.1698257476091385,0.9459999799728394,0.21825537085533142,0.9413333535194397,0.001
0.164598748087883,0.9559999704360962,0.2182062864303589,0.9415555596351624,0.001
0.17351479828357697,0.9480000138282776,0.21816621720790863,0.9415555596351624,0.001
0.19427353143692017,0.9399999976158142,0.21813106536865234,0.9415555596351624,0.001
0.19210879504680634,0.9419999718666077,0.2180791050195694,0.9415555596351624,0.001
0.16755793988704681,0.9440000057220459,0.21815060079097748,0.9413333535194397,0.001
0.16593267023563385,0.9440000057220459,0.2180931121110916,0.9415555596351624,0.001
0.18410825729370117,0.9459999799728394,0.21808677911758423,0.9413333535194397,0.001
0.17296099662780762,0.9419999718666077,0.21805302798748016,0.9415555596351624,0.001
0.17907623946666718,0.9459999799728394,0.21806412935256958,0.9415555596351624,0.001
0.16275209188461304,0.949999988079071,0.2180851846933365,0.9415555596351624,0.001
0.17443948984146118,0.9440000057220459,0.21808423101902008,0.9413333535194397,0.001
0.1694544404745102,0.949999988079071,0.21807289123535156,0.9415555596351624,0.001
0.16668765246868134,0.9440000057220459,0.21805119514465332,0.9415555596351624,0.001
0.17936506867408752,0.9459999799728394,0.21800638735294342,0.941777765750885,0.001
0.1773180216550827,0.9559999704360962,0.21802552044391632,0.9415555596351624,0.001
0.15599970519542694,0.949999988079071,0.21807263791561127,0.9415555596351624,0.001
0.16213367879390717,0.9480000138282776,0.2180812805891037,0.941777765750885,0.001
0.17579543590545654,0.9459999799728394,0.21807079017162323,0.941777765750885,0.001
0.1716717630624771,0.9520000219345093,0.21809038519859314,0.9415555596351624,0.001
0.1748734563589096,0.9480000138282776,0.21808017790317535,0.941777765750885,0.001
0.16366371512413025,0.9520000219345093,0.21806330978870392,0.941777765750885,0.001
0.1712353676557541,0.949999988079071,0.21798622608184814,0.941777765750885,0.001
0.16229033470153809,0.9459999799728394,0.21798919141292572,0.941777765750885,0.001
0.15917974710464478,0.9440000057220459,0.21795721352100372,0.941777765750885,0.001
0.17661860585212708,0.9480000138282776,0.21790742874145508,0.941777765750885,0.001
0.17667324841022491,0.9440000057220459,0.2178838849067688,0.941777765750885,0.001
0.18108193576335907,0.9459999799728394,0.21792079508304596,0.941777765750885,0.001
0.17230744659900665,0.9520000219345093,0.21789169311523438,0.941777765750885,0.001
0.18569298088550568,0.9440000057220459,0.21783608198165894,0.941777765750885,0.001
0.15519565343856812,0.9539999961853027,0.21780021488666534,0.941777765750885,0.001
0.17808769643306732,0.9520000219345093,0.21778428554534912,0.941777765750885,0.001
0.17192181944847107,0.9480000138282776,0.2178342342376709,0.941777765750885,0.001
0.16767163574695587,0.9459999799728394,0.21783025562763214,0.941777765750885,0.001
0.179968923330307,0.9480000138282776,0.21782147884368896,0.941777765750885,0.001
