9.999899309859756613e-01,9.999832744179002475e-01,9.999496631862712093e-01,9.998998287555878051e-01,9.999110263743204996e-01,9.999367338605225086e-01,9.999709347011958016e-01,9.999822995541762793e-01,9.999840009768377058e-01,9.999766279488540022e-01,9.999676642364647705e-01,9.999715468693466391e-01,9.999805788429512177e-01,9.999851350748940604e-01,9.999852300934435334e-01,9.999823406978975981e-01,9.999796042866364587e-01,9.999816235158505151e-01,9.999859770150578697e-01,9.999848155812287587e-01,9.999833773599675624e-01,9.999840287619008450e-01,9.999832957419130253e-01,9.999825532213435508e-01,9.999825375398359029e-01,9.999829738389962586e-01,9.999829141124791931e-01,9.999825335489731515e-01,9.999823084363015369e-01,9.999820283519511577e-01,9.999816902709426358e-01,9.999825565955688944e-01,9.999833408710401272e-01,9.999802843958605081e-01,9.999790705733175855e-01,9.999815988794580335e-01,9.999803574173711240e-01,9.999784471001476049e-01,9.999813273097970523e-01,9.999824429269210668e-01,9.999808355332788778e-01,9.999823325069883140e-01,9.999832377852726495e-01,9.999829468179086689e-01,9.999823342986928765e-01,9.999816102281329222e-01,9.999811148918524850e-01,9.999812233963893959e-01,9.999811070902069332e-01,9.999804366143507650e-01,9.999803081154823303e-01,9.999803123791934922e-01,9.999797120835864916e-01,9.999788021323183784e-01,9.999795949934195960e-01,9.999813779322721530e-01,9.999817870484548621e-01,9.999825528066139668e-01,9.999826958755875239e-01,9.999824919559614500e-01,9.999840326654521050e-01,9.999833124475117074e-01,9.999831507120688912e-01,9.999844907288206741e-01,9.999841682129044784e-01,9.999836114820936928e-01,9.999828923337190645e-01,9.999826598304935033e-01,9.999812746245879680e-01,9.999793118822708493e-01,9.999820332050148863e-01,9.999835124526725849e-01,9.999822951940586790e-01,9.999817462212376995e-01,9.999816632262081839e-01,9.999834768859727774e-01,9.999826192815817194e-01,9.999822152476554038e-01,9.999834123591426760e-01,9.999841685767023591e-01,9.999857124830668909e-01,9.999844919038878288e-01,9.999831433178769657e-01,9.999841303979337681e-01,9.999842312790860888e-01,9.999833970869076438e-01,9.999829372045496712e-01,9.999823640591785079e-01,9.999823780799488304e-01,9.999824765855009900e-01,9.999818119013070827e-01,9.999815153350937180e-01,9.999820505163370399e-01,9.999824632941454183e-01,9.999825765498826513e-01,9.999826489620318171e-01,9.999825336471985793e-01,9.999826470411790069e-01,9.999802793772687437e-01,9.999755394746898673e-01,9.999728352995589375e-01,9.999677908817830030e-01,9.999563683304586448e-01,9.999500273879675660e-01,9.999681752778997179e-01,9.999677483938285150e-01,9.999622940267727245e-01,9.999730316412751563e-01,9.999766456985526020e-01,9.999799299621372484e-01,9.999825197992322501e-01,9.999825018239789642e-01,9.999790303027111804e-01,9.999840608943486586e-01,9.999879895558478893e-01,9.999899637014095788e-01,9.999875849562158692e-01,9.999788996392453555e-01,9.999751061059214408e-01,9.999691401171730831e-01,9.999696613213018281e-01,9.999697309958719416e-01,9.999561355907644611e-01,9.999567829436273314e-01,9.999683302703488152e-01,9.999633576881024055e-01,9.999553317902609706e-01,9.999688690877519548e-01,9.999795481871842640e-01,9.999814864477230003e-01,9.999826384519110434e-01,9.999819900895090541e-01,9.999798665830894606e-01,9.999762675233796472e-01,9.999773135950817959e-01,9.999794230807310669e-01,9.999752968724351376e-01,9.999742832624178845e-01,9.999774369116494199e-01,9.999800450332259061e-01
9.999824724964128109e-01,9.999848815168661531e-01,9.999810812787472969e-01,9.999837105460755993e-01,9.999895910741543048e-01,9.999891847237449838e-01,9.999905001022852957e-01,9.999934527959339903e-01,9.999944618057270418e-01,9.999952026382743497e-01,9.999957692989482894e-01,9.999950303908917704e-01,9.999943485513540509e-01,9.999936464082566090e-01,9.999937638876872370e-01,9.999946108036965597e-01,9.999950821620586794e-01,9.999945051299619081e-01,9.999931116276457033e-01,9.999939933945825032e-01,9.999941143109936093e-01,9.999927934118204575e-01,9.999932090386209893e-01,9.999937027932901401e-01,9.999939208464638796e-01,9.999939069521133206e-01,9.999937679781396582e-01,9.999935701107460773e-01,9.999937192733341362e-01,9.999936982981125766e-01,9.999935347932478180e-01,9.999947132291708840e-01,9.999948140352898918e-01,9.999939472259029571e-01,9.999938499463496555e-01,9.999941836076686741e-01,9.999933197682366881e-01,9.999925244019323145e-01,9.999937893244350562e-01,9.999940263332973700e-01,9.999937685242912266e-01,9.999942253461995278e-01,9.999946151847325382e-01,9.999947930873531732e-01,9.999946487832858111e-01,9.999946911052575160e-01,9.999946673269732855e-01,9.999945777831271698e-01,9.999945898803161981e-01,9.999945614704301988e-01,9.999946245588944294e-01,9.999946614702821535e-01,9.999943939797049097e-01,9.999941556902740558e-01,9.999941566152301675e-01,9.999941566265988513e-01,9.999943104808153294e-01,9.999945308572932845e-01,9.999945265421956719e-01,9.999946037573863578e-01,9.999946970306154981e-01,9.999944891287668725e-01,9.999946813099995779e-01,9.999949379812278494e-01,9.999948392501210037e-01,9.999947062565297529e-01,9.999945955069051706e-01,9.999946120674394479e-01,9.999938909322736436e-01,9.999933177673483442e-01,9.999945277477308991e-01,9.999945412005217804e-01,9.999941735600259562e-01,9.999943857897051203e-01,9.999940534630695765e-01,9.999943641491881863e-01,9.999943871534924256e-01,9.999944964242786227e-01,9.999950231676848489e-01,9.999954214777062589e-01,9.999955559692352836e-01,9.999950102651382622e-01,9.999948374638734094e-01,9.999947665833133215e-01,9.999948942217997683e-01,9.999950360702314356e-01,9.999949384891806403e-01,9.999949397492855496e-01,9.999949531802485581e-01,9.999948082504488411e-01,9.999950188980619714e-01,9.999951727022562409e-01,9.999949004018162668e-01,9.999944586784295097e-01,9.999945510880934307e-01,9.999946546290630067e-01,9.999937995517029776e-01,9.999939237332000630e-01,9.999928310562609113e-01,9.999898595497143106e-01,9.999887476651565521e-01,9.999856925624044379e-01,9.999812782789376797e-01,9.999813870981597574e-01,9.999890127501203096e-01,9.999855127298360458e-01,9.999743982007203158e-01,9.999808036463946337e-01,9.999848689512873534e-01,9.999881476314840256e-01,9.999924186904536327e-01,9.999946633693070908e-01,9.999950776145851705e-01,9.999947686592349783e-01,9.999946291609376203e-01,9.999948750300973188e-01,9.999948084587231278e-01,9.999945099593787745e-01,9.999944790447443665e-01,9.999943454999993264e-01,9.999942874392218073e-01,9.999943490306577587e-01,9.999941679329822364e-01,9.999940959673949692e-01,9.999941293167466938e-01,9.999941664591460722e-01,9.999944192218208627e-01,9.999946048837955459e-01,9.999946393490972696e-01,9.999939729605102912e-01,9.999902847830526298e-01,9.999877772033869405e-01,9.999871107347644283e-01,9.999855956675673951e-01,9.999915870303084375e-01,9.999944121441330935e-01,9.999943347106636793e-01,9.999933179092295177e-01,9.999936254798740265e-01,9.999948036779642280e-01
9.999452394622494467e-01,9.999276617891155183e-01,9.999046528246253729e-01,9.998920731668476947e-01,9.998167190497042611e-01,9.997218805365264416e-01,9.998459069756790996e-01,9.999318545596906915e-01,9.999457361154782120e-01,9.999583212775178254e-01,9.999680684668419417e-01,9.999551891378359869e-01,9.999346789772971533e-01,9.999233139969874173e-01,9.999270172702381387e-01,9.999414277772302739e-01,9.999528562875639182e-01,9.999354252358898520e-01,9.998922577069606632e-01,9.999192552058957517e-01,9.999378561551566236e-01,9.999191958559094928e-01,9.999144649264053442e-01,9.999286350284819491e-01,9.999350141515606083e-01,9.999268750761984847e-01,9.999128134149941616e-01,9.999157647980609909e-01,9.999215065981843509e-01,9.999187628345680423e-01,9.999130522628547624e-01,9.999309325139620341e-01,9.999332335428334773e-01,9.999077674219734035e-01,9.999142889500944875e-01,9.999305124947568402e-01,9.999177506979322061e-01,9.998992253676988184e-01,9.999273916109814309e-01,9.999341196962632239e-01,9.999205025305855088e-01,9.999326500037568621e-01,9.999404338122985791e-01,9.999460329599969555e-01,9.999439500497828703e-01,9.999445880639541429e-01,9.999480147162103094e-01,9.999496085511054844e-01,9.999477475030289497e-01,9.999449167626153212e-01,9.999447608242917340e-01,9.999451856165251229e-01,9.999453374693985097e-01,9.999442241860378999e-01,9.999413150799227878e-01,9.999408504008897580e-01,9.999426464164571371e-01,9.999417539329442661e-01,9.999401045315607917e-01,9.999403209694719408e-01,9.999402891480713151e-01,9.999398318650492001e-01,9.999409616975754034e-01,9.999431262804137077e-01,9.999431978685606737e-01,9.999411685384984594e-01,9.999400535089080222e-01,9.999378470092779025e-01,9.999361467343987897e-01,9.999327193945646286e-01,9.999389544245786965e-01,9.999445827015733812e-01,9.999430364878207911e-01,9.999383685499196872e-01,9.999273353605531156e-01,9.999335237080231309e-01,9.999378030552179553e-01,9.999380672888946719e-01,9.999425569476443343e-01,9.999476818848052062e-01,9.999491739217774011e-01,9.999440587089338806e-01,9.999439644088852219e-01,9.999447637455887161e-01,9.999465046785189770e-01,9.999466325170942582e-01,9.999468181231350172e-01,9.999472456329385750e-01,9.999444116292579565e-01,9.999415411839436274e-01,9.999447179288836196e-01,9.999473897041752934e-01,9.999450816103490070e-01,9.999414285521197598e-01,9.999418624611280393e-01,9.999414306075777858e-01,9.999331967410398647e-01,9.999328774356399663e-01,9.999293306827894412e-01,9.999201607133727521e-01,9.999099178094184026e-01,9.998735172412125394e-01,9.998521599627565593e-01,9.998598886595573276e-01,9.999032791820354760e-01,9.998777035798411816e-01,9.997521067562047392e-01,9.997885953052900732e-01,9.997751142509514466e-01,9.997657448839163408e-01,9.998839420804870315e-01,9.999348606361309066e-01,9.999596165507682599e-01,9.999314809101633728e-01,9.999089071352500468e-01,9.999304160810424946e-01,9.999329082202166319e-01,9.999409064621431753e-01,9.999437377555295825e-01,9.999444370041601360e-01,9.999449066817760468e-01,9.999472030031029135e-01,9.999502036625926849e-01,9.999495770207431633e-01,9.999510442321479786e-01,9.999530288296227809e-01,9.999529987508140039e-01,9.999520843448408414e-01,9.999484113577636890e-01,9.999412955767184030e-01,9.999289939587470144e-01,9.999185185515671037e-01,9.998921694714226760e-01,9.998639786208514124e-01,9.998851293203188106e-01,9.999171989402384497e-01,9.999145749316085130e-01,9.999155921468627639e-01,9.999154230972635560e-01,9.999323813826777041e-01
9.999719203242420917e-01,9.999604840886604507e-01,9.999481951708730776e-01,9.999369882207247429e-01,9.999087733522173949e-01,9.998849369221716188e-01,9.999322530566132627e-01,9.999734365374024492e-01,9.999780510806886014e-01,9.999784480278322008e-01,9.999824939131940482e-01,9.999784096235089237e-01,9.999749761736893561e-01,9.999744704928161809e-01,9.999743499665783020e-01,9.999754717937321402e-01,9.999759485835966188e-01,9.999737465659563895e-01,9.999706849393987795e-01,9.999727182494098088e-01,9.999710197134845657e-01,9.999675163635401987e-01,9.999704606525483541e-01,9.999733739696239354e-01,9.999735696001152974e-01,9.999695690494263545e-01,9.999676657171221450e-01,9.999707284350733971e-01,9.999717818609497044e-01,9.999653985360055231e-01,9.999626600110786967e-01,9.999739601989858784e-01,9.999741502397228032e-01,9.999642494367435575e-01,9.999646463511453476e-01,9.999723813416494522e-01,9.999718724702688633e-01,9.999603899923386052e-01,9.999657756634405814e-01,9.999693625723011792e-01,9.999664328024664428e-01,9.999707342103647534e-01,9.999759956481284462e-01,9.999775153246446280e-01,9.999765784941700986e-01,9.999789547255204525e-01,9.999780642101541162e-01,9.999768770903756376e-01,9.999772539704281371e-01,9.999768473498988897e-01,9.999771173388580792e-01,9.999765142674732488e-01,9.999742519830761012e-01,9.999738666938355891e-01,9.999740975126769627e-01,9.999744014257885283e-01,9.999747062847745838e-01,9.999749494563729968e-01,9.999748957943666028e-01,9.999751031700725434e-01,9.999757088426122209e-01,9.999753829615656286e-01,9.999745121622254374e-01,9.999749510043329792e-01,9.999762628485768801e-01,9.999762219558760989e-01,9.999752831463410985e-01,9.999735127221356379e-01,9.999713294801040320e-01,9.999702709483244689e-01,9.999754250220576068e-01,9.999765435077279108e-01,9.999741285264462931e-01,9.999751802588434657e-01,9.999731367606727872e-01,9.999734146222181153e-01,9.999726924834249076e-01,9.999744564229331445e-01,9.999790981473779539e-01,9.999819857857801253e-01,9.999842336492292816e-01,9.999808296488481574e-01,9.999784146584715927e-01,9.999783001549076289e-01,9.999782280756335240e-01,9.999792035050631966e-01,9.999783388830110198e-01,9.999796287938806927e-01,9.999790005458635278e-01,9.999767514982522698e-01,9.999773177369206678e-01,9.999783489620313048e-01,9.999792126818647375e-01,9.999754811215098016e-01,9.999754562886664644e-01,9.999771202019474003e-01,9.999695417318434920e-01,9.999711153959651710e-01,9.999557504052063450e-01,9.999257322051562369e-01,9.999323116790037602e-01,9.998801010224269703e-01,9.998373317794175819e-01,9.998740703449584544e-01,9.999514733863179572e-01,9.999429747331305407e-01,9.999174751792452298e-01,9.999389566728495993e-01,9.999465978980879299e-01,9.999615643682773225e-01,9.999733923596068053e-01,9.999738201477157418e-01,9.999717456576036057e-01,9.999755981134512695e-01,9.999775824544485658e-01,9.999782297527417541e-01,9.999774635271023726e-01,9.999741153224022128e-01,9.999724447206972400e-01,9.999686640621803235e-01,9.999685522125218995e-01,9.999698396368330577e-01,9.999678516505809966e-01,9.999688852221879642e-01,9.999700861899327720e-01,9.999676701554562896e-01,9.999715224967076210e-01,9.999761002127343090e-01,9.999760946029709885e-01,9.999727009580965387e-01,9.999655056781193707e-01,9.999563076708000153e-01,9.999519651246373542e-01,9.999557483133685309e-01,9.999665798968635499e-01,9.999736722111265408e-01,9.999724667359259911e-01,9.999673818419978488e-01,9.999698826995881973e-01,9.999746879457234172e-01
9.999808700777066406e-01,9.999716229576733895e-01,9.999516525567742065e-01,9.999526632600463927e-01,9.999458335732924752e-01,9.999482729363080580e-01,9.999743873886473011e-01,9.999851367665542057e-01,9.999862638169361162e-01,9.999867255373828812e-01,9.999886592231632676e-01,9.999871458585403161e-01,9.999847247145225992e-01,9.999828547224751674e-01,9.999828907602932304e-01,9.999846917071408825e-01,9.999858744531593402e-01,9.999835041217011167e-01,9.999789005851198453e-01,9.999825289050932042e-01,9.999836723691259976e-01,9.999796828415128402e-01,9.999791144691698719e-01,9.999823006237420486e-01,9.999845142156118527e-01,9.999829467378731351e-01,9.999790299025335116e-01,9.999788299392093904e-01,9.999816382460267050e-01,9.999801794165250612e-01,9.999783502735226648e-01,9.999834202772035496e-01,9.999838661606190726e-01,9.999791145601193421e-01,9.999786774533276912e-01,9.999823438556632027e-01,9.999810629033163423e-01,9.999756840516056400e-01,9.999819909571669996e-01,9.999826782805030234e-01,9.999807509066158673e-01,9.999827808042027755e-01,9.999851936790946638e-01,9.999861495925870258e-01,9.999859507179280627e-01,9.999866651523916516e-01,9.999877432919674902e-01,9.999876515194046078e-01,9.999865873060116428e-01,9.999860105262996512e-01,9.999858035298530012e-01,9.999858960036362987e-01,9.999858048822716228e-01,9.999859189028938999e-01,9.999858599521758151e-01,9.999855310725251911e-01,9.999856698486837558e-01,9.999852702694624895e-01,9.999849727946639177e-01,9.999850178992346628e-01,9.999848991574253887e-01,9.999851801603654167e-01,9.999849993255338632e-01,9.999847738399694208e-01,9.999850532594791730e-01,9.999850389012863161e-01,9.999851621605557739e-01,9.999847332728677429e-01,9.999839169176993892e-01,9.999832172179594636e-01,9.999845011861907551e-01,9.999851311740712845e-01,9.999846639093448175e-01,9.999843320274521830e-01,9.999837007417227142e-01,9.999846877162781311e-01,9.999847649669391103e-01,9.999848631296117674e-01,9.999855101868888596e-01,9.999857987249924918e-01,9.999862209760976839e-01,9.999860292564335396e-01,9.999853714462005883e-01,9.999853165327294846e-01,9.999854262759981793e-01,9.999853875306143891e-01,9.999856130671105348e-01,9.999857294214962167e-01,9.999856062358958297e-01,9.999853963754503638e-01,9.999855724090593867e-01,9.999863757584535051e-01,9.999861672749830177e-01,9.999846446171432035e-01,9.999851593229323043e-01,9.999854181078262627e-01,9.999825564973434666e-01,9.999844054818822769e-01,9.999809509554324904e-01,9.999677489977329969e-01,9.999590175684716087e-01,9.999340069261961617e-01,9.999172785101109184e-01,9.999297886897693388e-01,9.999677581872674637e-01,9.999654869207006413e-01,9.999463727071997710e-01,9.999637989494658541e-01,9.999716135607741307e-01,9.999778449473524233e-01,9.999813139475008938e-01,9.999840478849364445e-01,9.999853313420317136e-01,9.999844020476302831e-01,9.999842355264263460e-01,9.999841443732293556e-01,9.999841004173504189e-01,9.999851735592528712e-01,9.999860498164707678e-01,9.999869668736209860e-01,9.999873871493036859e-01,9.999872221578698372e-01,9.999868213553781970e-01,9.999865717991269776e-01,9.999868849527047132e-01,9.999882242709645652e-01,9.999889444516156800e-01,9.999885307679505786e-01,9.999877454774832586e-01,9.999841901135368971e-01,9.999767219724162715e-01,9.999723389319115086e-01,9.999685858019802254e-01,9.999580769544991199e-01,9.999716228721808875e-01,9.999835131293366430e-01,9.999801366975589190e-01,9.999773056624690071e-01,9.999819898275745800e-01,9.999847882309040870e-01
9.998657212563557550e-01,9.998382552876137197e-01,9.997159241174813360e-01,9.996491261117625982e-01,9.992370736435987055e-01,9.989560787798836827e-01,9.994546213420107961e-01,9.998052890005055815e-01,9.998402124620042741e-01,9.998243071313481778e-01,9.998324857588158920e-01,9.998167836311040446e-01,9.998005968664074317e-01,9.997944055066909641e-01,9.997929131495766342e-01,9.998029527196194977e-01,9.998152668413240463e-01,9.997975191654404625e-01,9.997487835644278675e-01,9.997805663879262283e-01,9.998029483540449291e-01,9.997799386037513614e-01,9.997722935368074104e-01,9.997773865470662713e-01,9.997909548401366919e-01,9.997862527234246954e-01,9.997357092797756195e-01,9.997474786941893399e-01,9.997526478546205908e-01,9.997373916266951710e-01,9.997397117840591818e-01,9.998072698072064668e-01,9.998043968371348456e-01,9.996580010920297354e-01,9.997071907273493707e-01,9.998054044845048338e-01,9.997733753261854872e-01,9.996345625841058791e-01,9.997136328893247992e-01,9.997676018392667174e-01,9.996971903019584715e-01,9.997433141397777945e-01,9.997875842527719215e-01,9.998283078894019127e-01,9.998383529600687325e-01,9.998334896081360057e-01,9.998406473896466196e-01,9.998374940478242934e-01,9.998308167268987745e-01,9.998260393331293017e-01,9.998171840270515531e-01,9.998150272440398112e-01,9.998076125484658405e-01,9.998075614421395585e-01,9.998083619721001014e-01,9.998054425232112408e-01,9.998047923727426678e-01,9.998054365278221667e-01,9.998085982078919187e-01,9.998056192853255197e-01,9.998064128885744140e-01,9.998002576612634584e-01,9.998073876922717318e-01,9.998311149684013799e-01,9.998326939530670643e-01,9.998193776555126533e-01,9.998059068166185170e-01,9.997934234852436930e-01,9.997700712265213951e-01,9.997623858071165159e-01,9.998110261658439413e-01,9.998339038720587268e-01,9.998141075921012089e-01,9.997887652571080253e-01,9.997418219281826168e-01,9.997867768397554755e-01,9.997961178014520556e-01,9.998005239176563919e-01,9.998248132906155661e-01,9.998423123324755579e-01,9.998486077238339931e-01,9.998275969992391765e-01,9.998179962713038549e-01,9.998260020365705714e-01,9.998302744934335351e-01,9.998221639107214287e-01,9.998214581282809377e-01,9.998162832198431715e-01,9.998181143746478483e-01,9.998150808532955125e-01,9.998192259954521433e-01,9.998261493892641738e-01,9.998169390892144293e-01,9.998034964373800904e-01,9.998049540590727702e-01,9.998080187506275252e-01,9.997932333208154887e-01,9.998027226247359067e-01,9.997884009499102831e-01,9.997548281389754266e-01,9.997558883769670501e-01,9.997442805615719408e-01,9.997441466839518398e-01,9.997504956554621458e-01,9.997715342760784552e-01,9.997497000149451196e-01,9.996370295120868832e-01,9.995983077678829432e-01,9.995951016899198294e-01,9.996307732071727514e-01,9.997298130183480680e-01,9.998062311351532117e-01,9.998512414458673447e-01,9.997609081183327362e-01,9.996960360731463879e-01,9.997319923131726682e-01,9.997692980105057359e-01,9.998052084702067077e-01,9.998025216336827725e-01,9.998020851053297520e-01,9.998066874104551971e-01,9.998022161889821291e-01,9.998081693920539692e-01,9.998125152487773448e-01,9.998025528184371069e-01,9.998013726581120864e-01,9.998077479540370405e-01,9.998133954068180174e-01,9.998140068637439981e-01,9.998087619896978140e-01,9.997590996790677309e-01,9.997192972805351019e-01,9.996769114222843200e-01,9.995704120665322989e-01,9.994972741696983576e-01,9.996569510840345174e-01,9.996531853685155511e-01,9.996803646790795028e-01,9.997358872496988624e-01,9.998035196476848796e-01
9.997497650329023600e-01,9.997008362552151084e-01,9.993166980566456914e-01,9.992774212150834501e-01,9.994835115503519773e-01,9.995478451892267913e-01,9.997156027529854327e-01,9.998492079903371632e-01,9.998854547593509778e-01,9.998777930304640904e-01,9.998623755236621946e-01,9.998485799442278221e-01,9.998472655861405656e-01,9.998461606155615300e-01,9.998471270519075915e-01,9.998463349911617115e-01,9.998464047530433163e-01,9.998472262668656185e-01,9.998439035407500342e-01,9.998463345546042547e-01,9.998458661139011383e-01,9.998436378809856251e-01,9.998525191767839715e-01,9.998544193658744916e-01,9.998504109680652618e-01,9.998509337310679257e-01,9.998497348860837519e-01,9.998479669739026576e-01,9.998494843603111804e-01,9.998446258832700551e-01,9.998352565598906949e-01,9.998366841755341738e-01,9.998516233172267675e-01,9.998671661887783557e-01,9.998632433416787535e-01,9.998511168232653290e-01,9.998480901413131505e-01,9.998488405690295622e-01,9.998511341691482812e-01,9.998513321334030479e-01,9.998479820787906647e-01,9.998434745066333562e-01,9.998400686454260722e-01,9.998433230211958289e-01,9.998479371570283547e-01,9.998402364144567400e-01,9.998294871038524434e-01,9.998277197882998735e-01,9.998244404705474153e-01,9.998047351837158203e-01,9.997930795216234401e-01,9.997956815641373396e-01,9.997997683967696503e-01,9.998104237893130630e-01,9.998190968763083220e-01,9.998329054214991629e-01,9.998395183647517115e-01,9.998518609500024468e-01,9.998538021609419957e-01,9.998502721718978137e-01,9.998595166107406840e-01,9.998512528982246295e-01,9.998544766567647457e-01,9.998636481614084914e-01,9.998576330253854394e-01,9.998512633028440177e-01,9.998530907323583961e-01,9.998508331045741215e-01,9.998256558756111190e-01,9.998234045779099688e-01,9.998668809712398797e-01,9.998752618121216074e-01,9.998577673250110820e-01,9.998622157727368176e-01,9.998560059029841796e-01,9.998586723522748798e-01,9.998401556804310530e-01,9.998408470710273832e-01,9.998693538800580427e-01,9.998727636993862689e-01,9.998888274494674988e-01,9.998791978359804489e-01,9.998610045295208693e-01,9.998639425903093070e-01,9.998703386227134615e-01,9.998697414848720655e-01,9.998602719861082733e-01,9.998586352303391322e-01,9.998573416669387370e-01,9.998554880003212020e-01,9.998634478251915425e-01,9.998661114659626037e-01,9.998597050289390609e-01,9.998447318648686633e-01,9.998460313800023869e-01,9.998415373265743256e-01,9.997942679619882256e-01,9.997888140351278707e-01,9.997132165299262851e-01,9.994501753244549036e-01,9.993515811511315405e-01,9.994089366518892348e-01,9.994511390104889870e-01,9.994410646613687277e-01,9.997176533215679228e-01,9.996805244009010494e-01,9.995408415852580220e-01,9.996932349458802491e-01,9.997581694187829271e-01,9.998132094478933141e-01,9.998427549871848896e-01,9.998420847550733015e-01,9.998374310816871002e-01,9.998748469515703619e-01,9.998876337340334430e-01,9.998948664724593982e-01,9.998776769498363137e-01,9.998279473365982994e-01,9.998118309595156461e-01,9.997658390348078683e-01,9.997601853538071737e-01,9.997585268574766815e-01,9.997540632612071931e-01,9.997873732936568558e-01,9.997951316036051139e-01,9.997789232875220478e-01,9.998083871614653617e-01,9.998421971395146102e-01,9.998599933460354805e-01,9.998164770513540134e-01,9.997172126313671470e-01,9.997763089049840346e-01,9.998937239579390734e-01,9.999452864904014859e-01,9.999214427080005407e-01,9.998575771896867082e-01,9.998873133226879872e-01,9.998828052048338577e-01,9.998312684183474630e-01,9.998063708189874887e-01
9.999718041690357495e-01,9.999765604716230882e-01,9.999717218670411967e-01,9.999790190959174652e-01,9.999856111217013677e-01,9.999849005553187453e-01,9.999871585951041197e-01,9.999915083399173454e-01,9.999926365935607464e-01,9.999928921292848827e-01,9.999937705574666325e-01,9.999932023179098906e-01,9.999921768139756750e-01,9.999916661317911348e-01,9.999916399674475542e-01,9.999924403787190386e-01,9.999930342105471937e-01,9.999923445911917952e-01,9.999912749935901957e-01,9.999920094051049091e-01,9.999919190386208356e-01,9.999910724836809095e-01,9.999917379946055007e-01,9.999918336734481272e-01,9.999915914577286458e-01,9.999915959378995467e-01,9.999918173334663152e-01,9.999918537478151848e-01,9.999918508037808351e-01,9.999914026075202855e-01,9.999914432446530554e-01,9.999926581199360953e-01,9.999927094359009061e-01,9.999918231924311840e-01,9.999917690993243014e-01,9.999920418167675962e-01,9.999916067263256991e-01,9.999908462950770627e-01,9.999916192600721843e-01,9.999917429258857737e-01,9.999914782774794730e-01,9.999921278595138574e-01,9.999926298200989550e-01,9.999927101393950579e-01,9.999924059052318626e-01,9.999923088525974890e-01,9.999918569483270403e-01,9.999915908629191108e-01,9.999920970267339726e-01,9.999922231245363946e-01,9.999918502817308763e-01,9.999918332450761227e-01,9.999919450829111156e-01,9.999918916646493017e-01,9.999918544390311581e-01,9.999919747097010259e-01,9.999920550189926871e-01,9.999923548130027484e-01,9.999923974196462950e-01,9.999925667571005761e-01,9.999928437082417076e-01,9.999924310441201669e-01,9.999927353455859702e-01,9.999932151026769134e-01,9.999928981728771760e-01,9.999928299434941437e-01,9.999928545453258266e-01,9.999927954449958634e-01,9.999918427392913145e-01,9.999913750971245463e-01,9.999930335607132292e-01,9.999924910134723177e-01,9.999915348880676902e-01,9.999922991955827456e-01,9.999918283838269417e-01,9.999924085923339589e-01,9.999923155537544517e-01,9.999923249933999614e-01,9.999933502290332399e-01,9.999939491431177885e-01,9.999944895039334369e-01,9.999937348175080842e-01,9.999931666802694963e-01,9.999929306345620716e-01,9.999932467680991977e-01,9.999936121498649300e-01,9.999931237375676574e-01,9.999930091562418966e-01,9.999931607530925248e-01,9.999930078288343793e-01,9.999931146821836592e-01,9.999932941291262978e-01,9.999928884544715402e-01,9.999922588949630153e-01,9.999923902314549196e-01,9.999924946082501265e-01,9.999911041259110789e-01,9.999910047799858148e-01,9.999895633209234802e-01,9.999854989200684940e-01,9.999844229496375192e-01,9.999794160576129798e-01,9.999717215141572524e-01,9.999716083675593836e-01,9.999858890550967772e-01,9.999819946842762874e-01,9.999700852749811020e-01,9.999790274359838804e-01,9.999847678982405341e-01,9.999883013524595299e-01,9.999913645606284263e-01,9.999924969833955402e-01,9.999923532814136706e-01,9.999925658285064856e-01,9.999928372358226625e-01,9.999933313224573794e-01,9.999931917495814560e-01,9.999923013156148954e-01,9.999922557935860823e-01,9.999915034077275777e-01,9.999909225862211315e-01,9.999911792228886043e-01,9.999911772638370167e-01,9.999911312388576334e-01,9.999909907191977254e-01,9.999905890954323695e-01,9.999907395367699792e-01,9.999913520350673934e-01,9.999921523112789146e-01,9.999914890449872473e-01,9.999874966197239701e-01,9.999842545257706661e-01,9.999840153159311740e-01,9.999819343811395811e-01,9.999889164337218972e-01,9.999924117619229946e-01,9.999927285739431682e-01,9.999920524114713771e-01,9.999918991761660436e-01,9.999924562152955332e-01
9.998105186969041824e-01,9.998238848929759115e-01,9.998377506708493456e-01,9.998750382219441235e-01,9.998914544048602693e-01,9.998873915465082973e-01,9.999155238328967243e-01,9.999476542216143571e-01,9.999561860313406214e-01,9.999540325843554456e-01,9.999576015616185032e-01,9.999540022618020885e-01,9.999482092607649975e-01,9.999448133130499627e-01,9.999430697971547488e-01,9.999474575743079185e-01,9.999495609554287512e-01,9.999453691234521102e-01,9.999410795244330075e-01,9.999459137434314471e-01,9.999427269067382440e-01,9.999374463295680471e-01,9.999434797173307743e-01,9.999453157288371585e-01,9.999459889077115804e-01,9.999453713899129070e-01,9.999443293854710646e-01,9.999409418051072862e-01,9.999415708734886721e-01,9.999436989746754989e-01,9.999409571428259369e-01,9.999478685022040736e-01,9.999484055188077036e-01,9.999412228316941764e-01,9.999388992000604048e-01,9.999409077390737366e-01,9.999415273377962876e-01,9.999382767346105538e-01,9.999438406994158868e-01,9.999432401673402637e-01,9.999415524871437810e-01,9.999467214729520492e-01,9.999499573241337202e-01,9.999497769495064858e-01,9.999482806888408959e-01,9.999500063422601670e-01,9.999515379022341222e-01,9.999506662970816251e-01,9.999502156424568966e-01,9.999498846991627943e-01,9.999498270262847655e-01,9.999503408835153095e-01,9.999516368443437386e-01,9.999529214728681836e-01,9.999533109657932073e-01,9.999523119586228859e-01,9.999512506074097473e-01,9.999504096704185940e-01,9.999489614892809186e-01,9.999472677445737645e-01,9.999466475455847103e-01,9.999493058494408615e-01,9.999486056913156062e-01,9.999461600164067931e-01,9.999468570531462319e-01,9.999473706811841112e-01,9.999467451125383377e-01,9.999471322444151156e-01,9.999483500650967471e-01,9.999481631675735116e-01,9.999478576755791437e-01,9.999481059348909184e-01,9.999480685146409087e-01,9.999486410160898231e-01,9.999467729467141908e-01,9.999481911654584110e-01,9.999473320058314130e-01,9.999473230600415263e-01,9.999493718823941890e-01,9.999518080840061884e-01,9.999542113509960473e-01,9.999530310451518744e-01,9.999514609589823522e-01,9.999500043486477807e-01,9.999510033012484200e-01,9.999563308992946986e-01,9.999562453449470922e-01,9.999533830159634817e-01,9.999532336041738745e-01,9.999524099366681185e-01,9.999550493193964940e-01,9.999588460232189391e-01,9.999570197942375671e-01,9.999490209120267536e-01,9.999481233026017435e-01,9.999508713444811292e-01,9.999244486461975612e-01,9.999218657467281446e-01,9.998908168054185808e-01,9.998125230922596529e-01,9.998423862853087485e-01,9.997535447182599455e-01,9.997396256076171994e-01,9.997896503773517907e-01,9.999037438610685058e-01,9.999073542130645365e-01,9.998765700147487223e-01,9.999043765419628471e-01,9.999223239574348554e-01,9.999397007231891621e-01,9.999463713174918666e-01,9.999477674464287702e-01,9.999467970483237877e-01,9.999482039638678543e-01,9.999495426418434363e-01,9.999519485354539938e-01,9.999514259579882491e-01,9.999476728662557434e-01,9.999467950110556558e-01,9.999453359923791140e-01,9.999443310407514218e-01,9.999445477224071510e-01,9.999448297094204463e-01,9.999463953536178451e-01,9.999481685954378918e-01,9.999543746707786340e-01,9.999610327467962634e-01,9.999632876824762207e-01,9.999579181640001480e-01,9.999431681389978621e-01,9.999188791334745474e-01,9.999073240469442680e-01,9.999042709314380772e-01,9.999032452615210786e-01,9.999337448462028988e-01,9.999480125370610040e-01,9.999475413751497399e-01,9.999429791496368125e-01,9.999419210907944944e-01,9.999472355884790886e-01
9.994640723452903330e-01,9.995332350663375109e-01,9.995652677898760885e-01,9.996032192138954997e-01,9.995383134519215673e-01,9.994502361514605582e-01,9.994766197632998228e-01,9.996616896241903305e-01,9.997308012971188873e-01,9.998222000431269407e-01,9.998679684358648956e-01,9.997648701973957941e-01,9.996403258701320738e-01,9.995627987664192915e-01,9.995778622687794268e-01,9.996843013213947415e-01,9.997148094698786736e-01,9.995386876689735800e-01,9.992762999609112740e-01,9.995638288382906467e-01,9.996310764981899410e-01,9.995160686667077243e-01,9.995214722875971347e-01,9.996041189297102392e-01,9.996565876353997737e-01,9.996072940703015774e-01,9.995242064469493926e-01,9.995781176257878542e-01,9.996193557453807443e-01,9.994776537641882896e-01,9.994500704342499375e-01,9.996700312476605177e-01,9.996965051104780287e-01,9.995594781648833305e-01,9.994738457025960088e-01,9.995850651466753334e-01,9.995415593439247459e-01,9.994936184375546873e-01,9.996299722988624126e-01,9.996584377659019083e-01,9.996453025378286839e-01,9.996901670238003135e-01,9.997159148333594203e-01,9.997374773083720356e-01,9.997381312423385680e-01,9.997583351796492934e-01,9.997787987376796082e-01,9.997574051958508790e-01,9.997559597250074148e-01,9.997365688323043287e-01,9.996948384796269238e-01,9.997080835455562919e-01,9.997263374389149249e-01,9.997192147420719266e-01,9.996965008904226124e-01,9.996896448428742588e-01,9.997260095551609993e-01,9.997277992079034448e-01,9.996988311759196222e-01,9.996975751419086009e-01,9.996987302147317678e-01,9.996990058571100235e-01,9.997081297624390572e-01,9.997146317036822438e-01,9.997017064888495952e-01,9.996942246216349304e-01,9.997068715747445822e-01,9.996960275748278946e-01,9.996740755450446159e-01,9.996787037525791675e-01,9.996976197871845216e-01,9.997073128179181367e-01,9.997119112813379616e-01,9.997083782218396664e-01,9.996577036508824676e-01,9.996725920645985752e-01,9.996826704009436071e-01,9.996894972573500127e-01,9.997100426990073174e-01,9.997386884060688317e-01,9.997510327957570553e-01,9.997293117921799421e-01,9.997196092153899372e-01,9.997089340467937291e-01,9.997264955600257963e-01,9.997566534439101815e-01,9.997670313750859350e-01,9.997696300415555015e-01,9.997494503331836313e-01,9.997280627139844000e-01,9.997378907282836735e-01,9.997746143926633522e-01,9.997662622045027092e-01,9.997119994077365845e-01,9.997304416610859334e-01,9.997490081586875021e-01,9.995924942486453801e-01,9.995872812578454614e-01,9.993964058812707663e-01,9.991769120679236948e-01,9.990984745672903955e-01,9.986203017178922892e-01,9.988121335627511144e-01,9.992287791683338583e-01,9.994251940515823662e-01,9.992933089961297810e-01,9.991769513580948114e-01,9.993938760599121451e-01,9.994503039633855224e-01,9.995147790468763560e-01,9.996295302698854357e-01,9.997390798816923052e-01,9.997631433798233047e-01,9.997007204510737211e-01,9.996687540842685848e-01,9.996343344973865896e-01,9.996378142968751490e-01,9.997155980090610683e-01,9.997414772515185177e-01,9.997626378462882712e-01,9.997721364488825202e-01,9.997770719928666949e-01,9.997842702141497284e-01,9.997790257039014250e-01,9.998076441552257165e-01,9.998252430814318359e-01,9.998348510562209412e-01,9.998294207616709173e-01,9.997876857232768089e-01,9.997208653076086193e-01,9.994874360272660851e-01,9.993715920136310160e-01,9.995954666228499264e-01,9.996094971138518304e-01,9.996460021066013724e-01,9.996842672990169376e-01,9.996319335477892309e-01,9.995572611223906279e-01,9.995996762590948492e-01,9.996879259997513145e-01
9.998819186730543151e-01,9.998880375060252845e-01,9.998577798542100936e-01,9.998749841179233044e-01,9.998917593256919645e-01,9.998843180001131259e-01,9.999331591316149570e-01,9.999651665857527405e-01,9.999708928662585095e-01,9.999675266044505406e-01,9.999678433450753801e-01,9.999649378987669479e-01,9.999610590966767631e-01,9.999606516976200510e-01,9.999621490314893890e-01,9.999631147620675620e-01,9.999631569080520421e-01,9.999609667502227239e-01,9.999591151099593844e-01,9.999606650089845061e-01,9.999601215131406207e-01,9.999580891599180177e-01,9.999597832320432644e-01,9.999614547668898012e-01,9.999615575034113135e-01,9.999600628507323563e-01,9.999598923532175831e-01,9.999610892118653283e-01,9.999599069960822817e-01,9.999584880097245332e-01,9.999581281772407237e-01,9.999621449314872734e-01,9.999626154458383098e-01,9.999587013553536963e-01,9.999592817111988552e-01,9.999611157072649803e-01,9.999603599171678070e-01,9.999593969805573579e-01,9.999610846425639465e-01,9.999618088950228412e-01,9.999617172907164786e-01,9.999617401663272176e-01,9.999618498040945269e-01,9.999622273026034236e-01,9.999620922862959560e-01,9.999612830106343608e-01,9.999585421319352463e-01,9.999581122174276970e-01,9.999594235450786073e-01,9.999600202645524405e-01,9.999599987604597118e-01,9.999600515620841179e-01,9.999611082712362986e-01,9.999606026321998797e-01,9.999605629382131156e-01,9.999612533174513374e-01,9.999613660329487175e-01,9.999618562505929731e-01,9.999620190865243785e-01,9.999620684102410451e-01,9.999627631441398989e-01,9.999620543130731676e-01,9.999619708069076296e-01,9.999636455177096650e-01,9.999635841304552741e-01,9.999622343639202882e-01,9.999634210907970555e-01,9.999630080965289380e-01,9.999601375202473719e-01,9.999599649163428694e-01,9.999634850028087385e-01,9.999624235788360238e-01,9.999596931120322552e-01,9.999625274103891570e-01,9.999602391726511996e-01,9.999631354730809107e-01,9.999604930708301254e-01,9.999615587221342139e-01,9.999669703320250846e-01,9.999675911458325572e-01,9.999704277142882347e-01,9.999683463138353545e-01,9.999656697291356977e-01,9.999653910526831169e-01,9.999677673586120363e-01,9.999696872582717333e-01,9.999672367666789796e-01,9.999651869147783145e-01,9.999646100877725985e-01,9.999643601295247208e-01,9.999658774249837734e-01,9.999674278333259281e-01,9.999662817135686055e-01,9.999594413675367832e-01,9.999596339876006823e-01,9.999611353778163902e-01,9.999440721912833396e-01,9.999365723779192194e-01,9.999158424834604375e-01,9.998610394104616717e-01,9.998369120003189892e-01,9.997770766785833985e-01,9.997271774918772280e-01,9.998100875236559659e-01,9.999287112004822120e-01,9.999228457381832413e-01,9.998805480790906586e-01,9.999194677802734077e-01,9.999401944660348818e-01,9.999499426339752972e-01,9.999586944613838568e-01,9.999619978516420815e-01,9.999610673803545069e-01,9.999639965099049732e-01,9.999655806896043941e-01,9.999672066478524357e-01,9.999654954845027532e-01,9.999596012348774821e-01,9.999585071200272068e-01,9.999570385734841693e-01,9.999560565884166863e-01,9.999552905828750227e-01,9.999552998924627900e-01,9.999565994621661957e-01,9.999543064404861070e-01,9.999508483269892167e-01,9.999559161296929233e-01,9.999620063135807868e-01,9.999617442081216723e-01,9.999477754099643789e-01,9.999310436032828875e-01,9.999435165045724716e-01,9.999644698073097970e-01,9.999774162188259652e-01,9.999738962396804709e-01,9.999624863521603402e-01,9.999670892575522885e-01,9.999663252638129052e-01,9.999632468789059203e-01,9.999612386382068507e-01
9.998012893483974040e-01,9.998119719966780394e-01,9.996803007961716503e-01,9.997793229122180492e-01,9.997859094146406278e-01,9.996492509380914271e-01,9.997273475164547563e-01,9.998730053921462968e-01,9.999140728032216430e-01,9.999077111060614698e-01,9.999113914163899608e-01,9.998941516896593384e-01,9.998820897526456974e-01,9.998748381476616487e-01,9.998742340249009430e-01,9.998857618047622964e-01,9.998920872749295086e-01,9.998803129929001443e-01,9.998594536882592365e-01,9.998749183141626418e-01,9.998822985216975212e-01,9.998654278606409207e-01,9.998708131752209738e-01,9.998808796444791369e-01,9.998825823058723472e-01,9.998769175726920366e-01,9.998679177078884095e-01,9.998649139452027157e-01,9.998722969030495733e-01,9.998739365400979295e-01,9.998596933437511325e-01,9.998761583701707423e-01,9.998809354656259529e-01,9.998545936250593513e-01,9.998618421377614141e-01,9.998780225869268179e-01,9.998631921189371496e-01,9.998428404069272801e-01,9.998630900954594836e-01,9.998666503379354253e-01,9.998657274700235575e-01,9.998814518912695348e-01,9.998879656559438445e-01,9.998905072716297582e-01,9.998889638009131886e-01,9.998880592465866357e-01,9.998867349640931934e-01,9.998870716808596626e-01,9.998839550826232880e-01,9.998843095600022934e-01,9.998908193811075762e-01,9.998901581930113025e-01,9.998897684490657412e-01,9.998936098054400645e-01,9.998929068024153821e-01,9.998893755109747872e-01,9.998915594696882181e-01,9.998901941871736199e-01,9.998858997569186613e-01,9.998854161458439194e-01,9.998846901653450914e-01,9.998860006235190667e-01,9.998826867158641107e-01,9.998813130805501714e-01,9.998854906807537191e-01,9.998858149629086256e-01,9.998852555290795863e-01,9.998846659655100666e-01,9.998802850968786515e-01,9.998741459858138114e-01,9.998841594642726704e-01,9.998866362002445385e-01,9.998835728256381117e-01,9.998855934027233161e-01,9.998777612199774012e-01,9.998817649029660970e-01,9.998792491387575865e-01,9.998809321477892809e-01,9.998888730697217397e-01,9.999041154223959893e-01,9.999092076177475974e-01,9.998967040519346483e-01,9.998960765078663826e-01,9.998966953280614689e-01,9.998992954788263887e-01,9.999005144491093233e-01,9.998958826981834136e-01,9.998982360484660603e-01,9.999003201955929399e-01,9.998947013227734715e-01,9.998962144818506204e-01,9.999008658051025122e-01,9.998971075328881852e-01,9.998883874795865268e-01,9.998882012223475613e-01,9.998874499506200664e-01,9.998752408864675090e-01,9.998778765584575012e-01,9.998599196405848488e-01,9.998386297083925456e-01,9.998391571425599977e-01,9.997884153272025287e-01,9.997576589958043769e-01,9.997540978656616062e-01,9.998202914721332490e-01,9.997600268543465063e-01,9.996474134968593717e-01,9.997488762601278722e-01,9.998027412511873990e-01,9.998401702032424510e-01,9.998713747481815517e-01,9.998911185830365866e-01,9.999043607167550363e-01,9.998849466210231185e-01,9.998709044448332861e-01,9.998786196156288497e-01,9.998799991226405837e-01,9.998865178567939438e-01,9.998883634325466119e-01,9.998901798971928656e-01,9.998919521385687403e-01,9.998890420902171172e-01,9.998936782067175955e-01,9.998961796009098180e-01,9.998979983502067626e-01,9.999084137307363562e-01,9.999118726191227324e-01,9.999075467130751349e-01,9.999027340527391061e-01,9.998890361675876193e-01,9.997736435179831460e-01,9.996919239056296647e-01,9.996580946899484843e-01,9.993809639126993716e-01,9.997210932779125869e-01,9.998705687030451372e-01,9.998815630460740067e-01,9.998857728278380819e-01,9.998932915696059354e-01,9.998922864324413240e-01
9.999929441942185804e-01,9.999899918529990828e-01,9.999790933597978437e-01,9.999760632399556926e-01,9.999855878804737586e-01,9.999903902489677421e-01,9.999933883600533591e-01,9.999949405869301700e-01,9.999955293451421312e-01,9.999946543198348081e-01,9.999936211243038997e-01,9.999940750440146076e-01,9.999950926212477498e-01,9.999957708778310916e-01,9.999958076655275363e-01,9.999952278249111259e-01,9.999947195806271338e-01,9.999952529756228614e-01,9.999959280225994007e-01,9.999956071555970993e-01,9.999952464527268603e-01,9.999953286560412380e-01,9.999952633988868911e-01,9.999952280527395487e-01,9.999952087041492632e-01,9.999951622712615062e-01,9.999951893187244423e-01,9.999950763030938106e-01,9.999949532407299557e-01,9.999948258096083009e-01,9.999947458472888684e-01,9.999952917314658407e-01,9.999954369591250725e-01,9.999946283387544099e-01,9.999945511899568373e-01,9.999950650817481801e-01,9.999946730781630322e-01,9.999940733191579056e-01,9.999947657520351640e-01,9.999949932503113814e-01,9.999945704230412957e-01,9.999949814846331719e-01,9.999953874935272324e-01,9.999953540032038291e-01,9.999952227885842149e-01,9.999951481891002913e-01,9.999951277641230263e-01,9.999949865132293780e-01,9.999948092981867376e-01,9.999949423513498914e-01,9.999948510958347470e-01,9.999947011224321614e-01,9.999944980845612008e-01,9.999941020137157466e-01,9.999943439061098616e-01,9.999947149049148720e-01,9.999947881669868366e-01,9.999950995620565664e-01,9.999952300499899138e-01,9.999952972066239454e-01,9.999956849087539013e-01,9.999955676412355388e-01,9.999955289058561902e-01,9.999958417820380419e-01,9.999958096964292054e-01,9.999954837066979962e-01,9.999952940706862137e-01,9.999953094611555571e-01,9.999948599661365733e-01,9.999942618401291838e-01,9.999954192835502909e-01,9.999953612241370138e-01,9.999947803576105798e-01,9.999950565133985947e-01,9.999949323732835182e-01,9.999953516053210478e-01,9.999953251622173411e-01,9.999955237394715368e-01,9.999958262719701452e-01,9.999958453968247341e-01,9.999960453005769523e-01,9.999957716413518938e-01,9.999954515701574564e-01,9.999956483311507327e-01,9.999957603317852772e-01,9.999956403680698713e-01,9.999955268417579646e-01,9.999955189086904284e-01,9.999955470202621655e-01,9.999953194301269832e-01,9.999955237267386110e-01,9.999954905283630069e-01,9.999952338012008113e-01,9.999952103535179049e-01,9.999951485915516969e-01,9.999949426310195122e-01,9.999943185089250619e-01,9.999946874518172990e-01,9.999934604124973703e-01,9.999916006427156390e-01,9.999904035139479674e-01,9.999847891467652516e-01,9.999807343410793692e-01,9.999833496895007556e-01,9.999914382278802805e-01,9.999902721838225261e-01,9.999887960211708560e-01,9.999919458005024353e-01,9.999937773691272014e-01,9.999950222822917567e-01,9.999955265775497537e-01,9.999951521617731487e-01,9.999943647480904474e-01,9.999957294012347120e-01,9.999965344820793689e-01,9.999972840364534932e-01,9.999965634472118836e-01,9.999941445285003283e-01,9.999936654317025386e-01,9.999924042685961467e-01,9.999924417061265558e-01,9.999923099394436576e-01,9.999906616531006875e-01,9.999908955978753511e-01,9.999914733116384014e-01,9.999899050772000919e-01,9.999891502329774085e-01,9.999923331097306800e-01,9.999947905175758933e-01,9.999944316427900048e-01,9.999935578857730434e-01,9.999932158207229804e-01,9.999915499456619727e-01,9.999904131327639334e-01,9.999931639449641807e-01,9.999948726276670641e-01,9.999942544313853432e-01,9.999935748396637791e-01,9.999942490235298465e-01,9.999949471903164522e-01
9.999761135859444039e-01,9.999761854978714837e-01,9.999699629861424910e-01,9.999784344745421549e-01,9.999848299203222268e-01,9.999843965779291466e-01,9.999878115331739536e-01,9.999917563573035295e-01,9.999930145686448668e-01,9.999932258047010691e-01,9.999936407680252159e-01,9.999932922187326767e-01,9.999928361785350717e-01,9.999926956315903226e-01,9.999927535877759510e-01,9.999930023877823260e-01,9.999932843456917908e-01,9.999928512752376264e-01,9.999921824546618154e-01,9.999928044012449391e-01,9.999926038963167230e-01,9.999917648447080865e-01,9.999923205814411631e-01,9.999925134679870098e-01,9.999925725778666674e-01,9.999924973144516116e-01,9.999923432069408591e-01,9.999921822918622638e-01,9.999923454633972142e-01,9.999922093584245886e-01,9.999919893716651131e-01,9.999930423591649742e-01,9.999933745443740918e-01,9.999924824251138489e-01,9.999921990847724373e-01,9.999928401207398565e-01,9.999921536309557268e-01,9.999907741776041803e-01,9.999920070140433381e-01,9.999925520146462077e-01,9.999922017614153447e-01,9.999924136741356051e-01,9.999929929645077209e-01,9.999931925749478978e-01,9.999929880314084585e-01,9.999928838224150240e-01,9.999928719025774626e-01,9.999930286298877036e-01,9.999930117705844168e-01,9.999928676938907302e-01,9.999926784048511763e-01,9.999926887594483560e-01,9.999928188940430118e-01,9.999926848818176950e-01,9.999922835013421718e-01,9.999923908430901065e-01,9.999926351201793295e-01,9.999927570488580386e-01,9.999930066510387405e-01,9.999931428610580042e-01,9.999933074650471099e-01,9.999928776446722622e-01,9.999932573878140829e-01,9.999938173327791446e-01,9.999934832922008354e-01,9.999933846324893238e-01,9.999931608863334986e-01,9.999930218941699422e-01,9.999919685633358313e-01,9.999914353193162242e-01,9.999933038902781846e-01,9.999930353360468871e-01,9.999922219058134942e-01,9.999928958131931722e-01,9.999923002478681155e-01,9.999927219373603293e-01,9.999926364762359299e-01,9.999927414842204598e-01,9.999934064508124720e-01,9.999941125456643931e-01,9.999944713135846541e-01,9.999939939248179144e-01,9.999936142289698182e-01,9.999933966278149455e-01,9.999937557968223700e-01,9.999937170182420232e-01,9.999933775893623533e-01,9.999934003612906963e-01,9.999934115799078427e-01,9.999931794354779413e-01,9.999933814406176680e-01,9.999935053920125938e-01,9.999931806587483152e-01,9.999928603979242325e-01,9.999928894940239843e-01,9.999930034155113390e-01,9.999924697672213370e-01,9.999926109394436935e-01,9.999915099706413457e-01,9.999888230731812655e-01,9.999870089868636569e-01,9.999843428231542930e-01,9.999794232480780920e-01,9.999777009652461857e-01,9.999868605364099494e-01,9.999837458308320493e-01,9.999692661003791727e-01,9.999773572653793963e-01,9.999805617480888031e-01,9.999849960540814209e-01,9.999907320107013220e-01,9.999930107837826654e-01,9.999929942205199040e-01,9.999934378352008935e-01,9.999937731972750043e-01,9.999940594507279457e-01,9.999939067279228766e-01,9.999929445584712084e-01,9.999927012859188835e-01,9.999920835571174393e-01,9.999914719373919070e-01,9.999916314345682622e-01,9.999920194295555120e-01,9.999920734035185887e-01,9.999919426199994632e-01,9.999916422339083510e-01,9.999913573155936319e-01,9.999919107604000601e-01,9.999926859013612557e-01,9.999924961912256549e-01,9.999900593775237212e-01,9.999870234505578992e-01,9.999850556532692281e-01,9.999838632775208680e-01,9.999886879822952324e-01,9.999919256051725824e-01,9.999921109683782561e-01,9.999905175936874002e-01,9.999910638989604195e-01,9.999930676199255686e-01
9.999073046346893534e-01,9.999319969283533283e-01,9.999270883854478598e-01,9.999437547630805057e-01,9.999455938122991938e-01,9.999477332967217080e-01,9.999593901629850734e-01,9.999716844249633141e-01,9.999754834843770368e-01,9.999776032509544166e-01,9.999813524282217259e-01,9.999775853593746433e-01,9.999713666875322815e-01,9.999678220738132950e-01,9.999687734634790104e-01,9.999731005300418474e-01,9.999749925518699456e-01,9.999707591177866561e-01,9.999629644444212317e-01,9.999687413655919954e-01,9.999686572264181450e-01,9.999619641057506669e-01,9.999659470049664378e-01,9.999687295821786392e-01,9.999698954306950327e-01,9.999697091388952686e-01,9.999681053595850244e-01,9.999664428578398656e-01,9.999681154076824896e-01,9.999661754518456291e-01,9.999647037075192202e-01,9.999740085222583730e-01,9.999734697485109791e-01,9.999685727234464139e-01,9.999657807820767630e-01,9.999688259122194722e-01,9.999680230175727047e-01,9.999611165003443602e-01,9.999672918638680130e-01,9.999684396098018624e-01,9.999674894970667083e-01,9.999714054756623227e-01,9.999736012323410250e-01,9.999739789473096607e-01,9.999731108546257019e-01,9.999733008280600188e-01,9.999739102659077616e-01,9.999739282229711534e-01,9.999739809773018351e-01,9.999733469812781550e-01,9.999728698985563824e-01,9.999728645925642923e-01,9.999728509264969034e-01,9.999727830363553949e-01,9.999724208300904138e-01,9.999722224474680843e-01,9.999720759460615227e-01,9.999722388911322923e-01,9.999724069421063177e-01,9.999724632998550078e-01,9.999724602785136085e-01,9.999721828953624936e-01,9.999726760233897949e-01,9.999730446706962539e-01,9.999726603018643800e-01,9.999727733793406514e-01,9.999732050637248904e-01,9.999729609535279451e-01,9.999710929241700796e-01,9.999698400333727477e-01,9.999721883177699056e-01,9.999726027599535882e-01,9.999723600230936427e-01,9.999728155598859303e-01,9.999710778902226593e-01,9.999725295856478624e-01,9.999719897477916675e-01,9.999725209963798989e-01,9.999749274938949384e-01,9.999759739675937453e-01,9.999763591004011687e-01,9.999746786143077770e-01,9.999743385469628265e-01,9.999745915338280611e-01,9.999751905779703520e-01,9.999761058625153964e-01,9.999756384386273567e-01,9.999753809406684013e-01,9.999752291550976224e-01,9.999736735571786994e-01,9.999747711171949049e-01,9.999773092731629731e-01,9.999756898851046572e-01,9.999713874221924925e-01,9.999730513663962483e-01,9.999736527843197109e-01,9.999651775942766108e-01,9.999690572476538364e-01,9.999608498692396097e-01,9.999359801877290010e-01,9.999311111678252928e-01,9.998972279499867000e-01,9.998935677576810122e-01,9.999073966901050881e-01,9.999492232091142796e-01,9.999436503057950176e-01,9.999194176562014036e-01,9.999398090913018677e-01,9.999511721689486876e-01,9.999623899566358887e-01,9.999681475819670595e-01,9.999724330809840467e-01,9.999739694394520484e-01,9.999725825437053572e-01,9.999712921035097679e-01,9.999697467410442187e-01,9.999702515870012576e-01,9.999729778264736524e-01,9.999737233956693672e-01,9.999756294964754488e-01,9.999766307337267790e-01,9.999759720540168928e-01,9.999760232331027510e-01,9.999763885680295061e-01,9.999777341454318957e-01,9.999788887344038812e-01,9.999791970221849624e-01,9.999794462873978773e-01,9.999762606312287971e-01,9.999706002017774154e-01,9.999565448051725980e-01,9.999502856408071239e-01,9.999492566639673896e-01,9.999362790331360884e-01,9.999603709984512534e-01,9.999707305159972748e-01,9.999706625367252855e-01,9.999680123401049059e-01,9.999684631402487867e-01,9.999727033919043606e-01
9.999919386327746906e-01,9.999911297045400715e-01,9.999834758618817432e-01,9.999866402786210529e-01,9.999872550979489461e-01,9.999899076419751509e-01,9.999938353585093864e-01,9.999961773291943246e-01,9.999968624770190218e-01,9.999963351779115328e-01,9.999961045509735413e-01,9.999962203764880542e-01,9.999964715923397307e-01,9.999966010823300167e-01,9.999966079014939169e-01,9.999965271297241998e-01,9.999964438270581013e-01,9.999965277884257375e-01,9.999968403924412996e-01,9.999967636040310026e-01,9.999966121820307308e-01,9.999967259757340798e-01,9.999965898612117599e-01,9.999964945402552985e-01,9.999964526271014620e-01,9.999962811239129223e-01,9.999963007235237455e-01,9.999964271737553645e-01,9.999964282878863742e-01,9.999963334089443379e-01,9.999962400313506805e-01,9.999965721560784004e-01,9.999966923421652609e-01,9.999963117811603297e-01,9.999961437529236719e-01,9.999964424334848445e-01,9.999962189417601621e-01,9.999958342482386797e-01,9.999961920948408078e-01,9.999962662514008116e-01,9.999961758380777610e-01,9.999964091960009682e-01,9.999964994342462887e-01,9.999965150661864755e-01,9.999964880116749555e-01,9.999964226904012321e-01,9.999963661725814745e-01,9.999963185316573799e-01,9.999963378122629365e-01,9.999963175100674562e-01,9.999961683251967770e-01,9.999961591420287732e-01,9.999961897990488069e-01,9.999961250300657412e-01,9.999960757913868292e-01,9.999962010215313057e-01,9.999962925476211240e-01,9.999964241569614387e-01,9.999964919381909567e-01,9.999965660147154267e-01,9.999967124222166603e-01,9.999965138101742923e-01,9.999965924037041987e-01,9.999968577697018191e-01,9.999967497285524587e-01,9.999967099538480397e-01,9.999966679099543398e-01,9.999964636322147271e-01,9.999960003246997076e-01,9.999959252754706540e-01,9.999967169967476366e-01,9.999966753437092848e-01,9.999962028725803975e-01,9.999961560160954832e-01,9.999960942432153388e-01,9.999965348481509864e-01,9.999964343428473512e-01,9.999963790378387785e-01,9.999967033299981267e-01,9.999969841030633688e-01,9.999972492864799278e-01,9.999970037808907364e-01,9.999967217115681706e-01,9.999967142277910170e-01,9.999968313547924481e-01,9.999968559500302945e-01,9.999967056808145571e-01,9.999966535219755315e-01,9.999966869347645115e-01,9.999965762629017263e-01,9.999966001810207672e-01,9.999966594655234076e-01,9.999965817571592197e-01,9.999964223081860837e-01,9.999964055368764093e-01,9.999964040798658971e-01,9.999960694653964310e-01,9.999960654940878158e-01,9.999950383621580841e-01,9.999935026839921193e-01,9.999933226881694281e-01,9.999914018471827148e-01,9.999868322520342190e-01,9.999858943237995845e-01,9.999938692130854179e-01,9.999926276582300488e-01,9.999884384860706632e-01,9.999915203516138718e-01,9.999930694634713291e-01,9.999945811186989886e-01,9.999959321594360517e-01,9.999963213988394273e-01,9.999959547749313060e-01,9.999966217578730721e-01,9.999972519267430471e-01,9.999976899816829246e-01,9.999973620736000157e-01,9.999962207082262466e-01,9.999959684396344528e-01,9.999949981220197515e-01,9.999948459017105051e-01,9.999951649319882563e-01,9.999948026888887398e-01,9.999948149165902578e-01,9.999948151989883627e-01,9.999940438387966424e-01,9.999938383348307980e-01,9.999951280606182991e-01,9.999961786706990097e-01,9.999962035385578929e-01,9.999955823382151721e-01,9.999948906088320655e-01,9.999934227398625808e-01,9.999921732451184653e-01,9.999942963909234095e-01,9.999960948498483049e-01,9.999958492740006477e-01,9.999949656476019300e-01,9.999956098554321215e-01,9.999965248632634029e-01
9.999814757447893498e-01,9.999805584775458556e-01,9.999754192540422082e-01,9.999760644623165717e-01,9.999770084359624889e-01,9.999746576468169224e-01,9.999838029780221405e-01,9.999895402770562214e-01,9.999909932967057102e-01,9.999913107749307528e-01,9.999924850676507049e-01,9.999915836697255145e-01,9.999905053400652832e-01,9.999897491443334729e-01,9.999901351957305451e-01,9.999912240991761792e-01,9.999917296854619053e-01,9.999908124782450614e-01,9.999884582057347870e-01,9.999898248233876075e-01,9.999902753997957916e-01,9.999889321970840683e-01,9.999896821109359735e-01,9.999901417986620800e-01,9.999905504346315865e-01,9.999902542040217668e-01,9.999888981265030452e-01,9.999889859800532577e-01,9.999900072270975215e-01,9.999894149241299601e-01,9.999887127460169722e-01,9.999909233574726386e-01,9.999916092319836025e-01,9.999887343492446234e-01,9.999879769402468810e-01,9.999899457252467982e-01,9.999892572941462277e-01,9.999867576834731153e-01,9.999893356871325523e-01,9.999899303811616846e-01,9.999889190467001754e-01,9.999895227729211911e-01,9.999911306131252786e-01,9.999918189023446757e-01,9.999912411385594169e-01,9.999912702160145273e-01,9.999913984493105090e-01,9.999914193158474518e-01,9.999912625462457072e-01,9.999910134156380082e-01,9.999909546822891571e-01,9.999910487240413204e-01,9.999910369188000914e-01,9.999909532762103481e-01,9.999907504625298316e-01,9.999907024866843130e-01,9.999907526344031794e-01,9.999908037125351257e-01,9.999909310854491196e-01,9.999910585265752161e-01,9.999911261302258936e-01,9.999907466617514729e-01,9.999911215581960278e-01,9.999914348436504952e-01,9.999913019782979973e-01,9.999914304808044108e-01,9.999913496849330841e-01,9.999910279893811094e-01,9.999903178913882584e-01,9.999893468084337655e-01,9.999906829061728786e-01,9.999910771311988356e-01,9.999903865036685602e-01,9.999907068149695988e-01,9.999899385420576436e-01,9.999903808811723138e-01,9.999902894642218598e-01,9.999908430499999668e-01,9.999919929314273759e-01,9.999927165818007779e-01,9.999932255263956904e-01,9.999924743538031180e-01,9.999918978583082207e-01,9.999914400850684615e-01,9.999919773445071769e-01,9.999920249210845213e-01,9.999918477878964040e-01,9.999920905138424132e-01,9.999918580360827036e-01,9.999914369736870867e-01,9.999918239172984613e-01,9.999921332710073330e-01,9.999915204489298048e-01,9.999907862520558410e-01,9.999911985714788898e-01,9.999914040117801051e-01,9.999889650189288659e-01,9.999902172903603059e-01,9.999885318475207896e-01,9.999817988500581123e-01,9.999808580050739693e-01,9.999729386345279636e-01,9.999659758141206112e-01,9.999682228990423027e-01,9.999843323930690531e-01,9.999808359825692605e-01,9.999702557288401294e-01,9.999776610056869686e-01,9.999798767094034702e-01,9.999828618911124067e-01,9.999877927384659415e-01,9.999904512833381887e-01,9.999911156883172225e-01,9.999912572620814899e-01,9.999913759438641137e-01,9.999918074481684016e-01,9.999916783890512306e-01,9.999908834543020930e-01,9.999905717313595233e-01,9.999902180179560673e-01,9.999899347203609068e-01,9.999900985867498093e-01,9.999897895186222740e-01,9.999898035102887661e-01,9.999900667444308056e-01,9.999896910776442382e-01,9.999897390034675482e-01,9.999902743238635594e-01,9.999909870666670031e-01,9.999901667988524423e-01,9.999866140660742531e-01,9.999836344322829973e-01,9.999811926409165608e-01,9.999716280344728148e-01,9.999803250757395290e-01,9.999887845788180130e-01,9.999881041021581041e-01,9.999863372713662102e-01,9.999881820704104030e-01,9.999909692942310357e-01
9.999629114172421396e-01,9.999712500739406096e-01,9.999657892803952564e-01,9.999650202771590557e-01,9.999656024847354274e-01,9.999729271185060497e-01,9.999819098993611988e-01,9.999879940041864756e-01,9.999890615827098372e-01,9.999887184549152153e-01,9.999897799871177995e-01,9.999893663953116629e-01,9.999879448769206647e-01,9.999875128551138914e-01,9.999877935015319963e-01,9.999883085029068752e-01,9.999885389734117780e-01,9.999877236787142465e-01,9.999866181105971918e-01,9.999875825733397505e-01,9.999873478527661064e-01,9.999865847375986050e-01,9.999875287539907731e-01,9.999875821240493678e-01,9.999876516340009402e-01,9.999875194753258256e-01,9.999871296031415113e-01,9.999871274567340151e-01,9.999869943376324954e-01,9.999862725389903062e-01,9.999858363335079048e-01,9.999888586771703558e-01,9.999893945996518596e-01,9.999870291694605839e-01,9.999863448783798958e-01,9.999875138319112011e-01,9.999866340913285967e-01,9.999842752258700784e-01,9.999870250849198783e-01,9.999874179666221607e-01,9.999863352459215093e-01,9.999874733839533292e-01,9.999887843096075812e-01,9.999890302860876545e-01,9.999884198550716974e-01,9.999885280367379892e-01,9.999885137503952137e-01,9.999882216261539725e-01,9.999879130227782298e-01,9.999879040396990604e-01,9.999880301993471221e-01,9.999877979244047310e-01,9.999875205230637221e-01,9.999874833101785043e-01,9.999877055661272607e-01,9.999878594207984861e-01,9.999877855598242604e-01,9.999880101731832838e-01,9.999882816782701411e-01,9.999884692251725937e-01,9.999884894959905068e-01,9.999881302901485469e-01,9.999883469727137708e-01,9.999885960705796606e-01,9.999885621646171785e-01,9.999887215208218549e-01,9.999888178454057197e-01,9.999886695786699420e-01,9.999877396730880719e-01,9.999869383054829086e-01,9.999891000798015739e-01,9.999891130246396642e-01,9.999877184463912272e-01,9.999884340622884338e-01,9.999877109739827574e-01,9.999881574594837730e-01,9.999880753530305810e-01,9.999882192232689704e-01,9.999895717064646306e-01,9.999905743461567909e-01,9.999912107896307134e-01,9.999898663172643865e-01,9.999896108774919412e-01,9.999895684259172413e-01,9.999899096346780425e-01,9.999901066939855809e-01,9.999895926403041813e-01,9.999896077351877466e-01,9.999894152324486640e-01,9.999891054521867773e-01,9.999896712160989409e-01,9.999900820084803854e-01,9.999893026324571110e-01,9.999879328343013185e-01,9.999887056037550792e-01,9.999891488732828293e-01,9.999837121413293062e-01,9.999851558231966919e-01,9.999813185931998305e-01,9.999679829161323141e-01,9.999701245797041338e-01,9.999595980661979411e-01,9.999515813869948033e-01,9.999589924991596490e-01,9.999810324970894726e-01,9.999761505696369568e-01,9.999646917349309660e-01,9.999740065522928489e-01,9.999792870221426710e-01,9.999837201430636924e-01,9.999868523464101600e-01,9.999877920236031059e-01,9.999874082895985339e-01,9.999885586075833999e-01,9.999895388782533701e-01,9.999899852173257386e-01,9.999892342357270536e-01,9.999879832257647649e-01,9.999875419489399064e-01,9.999864166829866008e-01,9.999858033606869867e-01,9.999862456234041019e-01,9.999864034398342483e-01,9.999859771824048948e-01,9.999859075360291172e-01,9.999859972149351961e-01,9.999872811231398373e-01,9.999886501336732181e-01,9.999889695336605655e-01,9.999869245921217953e-01,9.999844546709937276e-01,9.999825593149580527e-01,9.999815390492585720e-01,9.999803642585902708e-01,9.999845584152353695e-01,9.999880184486755752e-01,9.999868761751713464e-01,9.999843933874217328e-01,9.999862322383705759e-01,9.999884440285313758e-01
9.999750800525362138e-01,9.999686192095396109e-01,9.999457556186825968e-01,9.999390342672995757e-01,9.999052425773697905e-01,9.998449902050197124e-01,9.999081602145452052e-01,9.999644518866261933e-01,9.999730488470959244e-01,9.999724242570664501e-01,9.999755583103251411e-01,9.999728722486906918e-01,9.999690955191908870e-01,9.999673606907890644e-01,9.999670164797862526e-01,9.999695717924623750e-01,9.999725151210441254e-01,9.999682725610909984e-01,9.999583356911898591e-01,9.999657104162906762e-01,9.999689791147829965e-01,9.999637391592841595e-01,9.999642263355781324e-01,9.999677627201890573e-01,9.999700863172620302e-01,9.999658433189324569e-01,9.999604048134642653e-01,9.999628992445650510e-01,9.999626270619046409e-01,9.999626816352247261e-01,9.999628651494276710e-01,9.999704276888223831e-01,9.999715099966124399e-01,9.999562954981229268e-01,9.999560965225100517e-01,9.999684945360058919e-01,9.999641155191056896e-01,9.999484324034710880e-01,9.999613939507980831e-01,9.999660872090316843e-01,9.999618517867929768e-01,9.999669280878151767e-01,9.999718112649134127e-01,9.999738892056484474e-01,9.999725037396274274e-01,9.999725579164078226e-01,9.999729223709437065e-01,9.999728824095655000e-01,9.999725377656432102e-01,9.999711912787461188e-01,9.999706453381804749e-01,9.999705244954384398e-01,9.999696189170208527e-01,9.999694986163376598e-01,9.999697456423746189e-01,9.999688743155275006e-01,9.999685857219446916e-01,9.999695402511861175e-01,9.999697250805184012e-01,9.999698193205404095e-01,9.999709634503233247e-01,9.999702349032304483e-01,9.999714220448367996e-01,9.999735495875938796e-01,9.999731652351329103e-01,9.999718293765909038e-01,9.999715895373810781e-01,9.999709329367760802e-01,9.999665937066311017e-01,9.999621631832269486e-01,9.999696064915042371e-01,9.999725369270890951e-01,9.999708817776991054e-01,9.999697141338401707e-01,9.999661764704796951e-01,9.999686773189750966e-01,9.999682407105865423e-01,9.999703206776757725e-01,9.999730360814282903e-01,9.999781126589368796e-01,9.999800947207404533e-01,9.999763409450679319e-01,9.999741152623755625e-01,9.999743322459835326e-01,9.999751695249869954e-01,9.999744681717857020e-01,9.999734414504928282e-01,9.999729252685938263e-01,9.999720306004746817e-01,9.999710170468461001e-01,9.999744462293165270e-01,9.999767105582577642e-01,9.999738022288511274e-01,9.999704592155467253e-01,9.999714531531935791e-01,9.999718047820351785e-01,9.999682858324376866e-01,9.999684816611988936e-01,9.999654639104846865e-01,9.999608595608151518e-01,9.999606554447382223e-01,9.999506245985685382e-01,9.999356149055529386e-01,9.999261949924402870e-01,9.999460067483596504e-01,9.999313258813344873e-01,9.998541470267809927e-01,9.998699940042570233e-01,9.998311071394709870e-01,9.998358135489979759e-01,9.999320976858143695e-01,9.999670991965103894e-01,9.999810192293807631e-01,9.999660336325177923e-01,9.999574326793663204e-01,9.999719147090218030e-01,9.999729751871200278e-01,9.999696226896048756e-01,9.999685231778130401e-01,9.999661112233297899e-01,9.999647693803126458e-01,9.999653134400432464e-01,9.999638924964528996e-01,9.999651819816790521e-01,9.999659151253581513e-01,9.999641260255884845e-01,9.999627484212396666e-01,9.999653298837074544e-01,9.999690294207539409e-01,9.999704865276726196e-01,9.999722458705946337e-01,9.999668139753339346e-01,9.999466017798113171e-01,9.999316160465241410e-01,9.999499456826015376e-01,9.999620858798152767e-01,9.999643778937752359e-01,9.999707772822148399e-01,9.999722285265306709e-01,9.999700193166063400e-01
9.999876687743380899e-01,9.999839724168850807e-01,9.999709580442868173e-01,9.999652337610314135e-01,9.999381295783678070e-01,9.998888234113110229e-01,9.999456327204825357e-01,9.999813992817507824e-01,9.999840952477825340e-01,9.999851744569241419e-01,9.999860449152038200e-01,9.999844300018594367e-01,9.999832416997378459e-01,9.999828127620276064e-01,9.999831240656931186e-01,9.999838086096133338e-01,9.999843716068426147e-01,9.999826971597940428e-01,9.999803532300575171e-01,9.999825811155460542e-01,9.999834117970749503e-01,9.999813077047292609e-01,9.999816716190252919e-01,9.999829171229066560e-01,9.999834761256352067e-01,9.999810680201335344e-01,9.999781103288114537e-01,9.999791317750350572e-01,9.999791968730278313e-01,9.999797625350765884e-01,9.999787446322443429e-01,9.999824547849129885e-01,9.999836986044101650e-01,9.999770237991469912e-01,9.999784191204525996e-01,9.999829682055860758e-01,9.999799107590661151e-01,9.999723473538324470e-01,9.999793356382724596e-01,9.999819298409420298e-01,9.999788931654620683e-01,9.999813165231898893e-01,9.999829848748049699e-01,9.999846906539460178e-01,9.999849816886126064e-01,9.999855555088288384e-01,9.999858743422009866e-01,9.999853133176657138e-01,9.999854469515412347e-01,9.999848163524802658e-01,9.999845133370399708e-01,9.999847609124117298e-01,9.999844330668565817e-01,9.999840926593606127e-01,9.999841221233509714e-01,9.999840681157365907e-01,9.999835736234672368e-01,9.999836280767340213e-01,9.999839121755940141e-01,9.999839133579371264e-01,9.999840380150999408e-01,9.999837152226973558e-01,9.999838959683984285e-01,9.999849183395781438e-01,9.999852377013667137e-01,9.999841876215214143e-01,9.999841655280761188e-01,9.999842594443180133e-01,9.999824404203536687e-01,9.999811596790095791e-01,9.999843475397938164e-01,9.999848474963073386e-01,9.999839132287888788e-01,9.999826041039341362e-01,9.999805310908413958e-01,9.999821801175130531e-01,9.999823275102244224e-01,9.999833714173291810e-01,9.999850584226805950e-01,9.999866649022806087e-01,9.999874137702136068e-01,9.999855947480682516e-01,9.999853280569368508e-01,9.999855477817618521e-01,9.999856432214073720e-01,9.999849247224119608e-01,9.999846088885533391e-01,9.999848201659915503e-01,9.999843018413230311e-01,9.999839332958799787e-01,9.999855577189009637e-01,9.999860449979678378e-01,9.999847227700229269e-01,9.999837862815184053e-01,9.999840003492863616e-01,9.999838929161342094e-01,9.999826812090759631e-01,9.999830515153007582e-01,9.999814881957718171e-01,9.999790431647852529e-01,9.999778297005832428e-01,9.999717925220465986e-01,9.999654347848263569e-01,9.999624886477249674e-01,9.999714056066295598e-01,9.999589573490084149e-01,9.999193059629760683e-01,9.999254457361530513e-01,9.999188238070928492e-01,9.999172642783378251e-01,9.999578906608803663e-01,9.999805194747750647e-01,9.999888535012360080e-01,9.999814281236467650e-01,9.999767963345220778e-01,9.999837662653590087e-01,9.999846137707208982e-01,9.999836235838301945e-01,9.999821646542841336e-01,9.999813141639606329e-01,9.999813472932146396e-01,9.999811601446708664e-01,9.999813810682098847e-01,9.999818442483956460e-01,9.999812435507919872e-01,9.999805998777446803e-01,9.999806060532137053e-01,9.999817404222994810e-01,9.999833447072887793e-01,9.999839947722648503e-01,9.999836014194443123e-01,9.999798776971147163e-01,9.999707710430811858e-01,9.999637726687069517e-01,9.999723756864113966e-01,9.999771711227367632e-01,9.999806660143804038e-01,9.999823580565134762e-01,9.999826016519364202e-01,9.999832097837497713e-01
9.999691484954382759e-01,9.999769533751532435e-01,9.999778769379190635e-01,9.999815495921211550e-01,9.999837246359675191e-01,9.999863801540413988e-01,9.999891181914790650e-01,9.999922000079095596e-01,9.999933146245894022e-01,9.999938558703433955e-01,9.999947436594993633e-01,9.999939744961920951e-01,9.999927680282780784e-01,9.999920266855042428e-01,9.999921497674222337e-01,9.999930252452031709e-01,9.999935655528133793e-01,9.999927718895378348e-01,9.999913633682808722e-01,9.999922291399343521e-01,9.999920617765383213e-01,9.999910721371634281e-01,9.999919465999482782e-01,9.999923136347206309e-01,9.999923681307336665e-01,9.999922216056802426e-01,9.999923702916930779e-01,9.999920527170615969e-01,9.999921181779427570e-01,9.999918468874966493e-01,9.999916326805760036e-01,9.999930711478555168e-01,9.999931994580038008e-01,9.999924026760709239e-01,9.999919172832960612e-01,9.999921335738690686e-01,9.999916834967734758e-01,9.999906865468801698e-01,9.999919515803412651e-01,9.999922852002782747e-01,9.999919241627139854e-01,9.999926042123661318e-01,9.999931806946733559e-01,9.999932000282569788e-01,9.999929766190689406e-01,9.999931122315501852e-01,9.999931456627564330e-01,9.999930620892882871e-01,9.999929728132883611e-01,9.999930820413283072e-01,9.999931567008388811e-01,9.999931192496660515e-01,9.999933312828943599e-01,9.999933200610939821e-01,9.999932016094135179e-01,9.999931876104710682e-01,9.999931172092146880e-01,9.999930308358671027e-01,9.999929924410935200e-01,9.999929879963929125e-01,9.999929840428194439e-01,9.999929686237010173e-01,9.999930244330244022e-01,9.999930418134681531e-01,9.999929846385384735e-01,9.999929876616988622e-01,9.999930154394860438e-01,9.999930398885226168e-01,9.999926771815808024e-01,9.999923907544143731e-01,9.999930998001218541e-01,9.999930930384834937e-01,9.999928791439742781e-01,9.999929960968074738e-01,9.999922968163446058e-01,9.999928482729956158e-01,9.999928835022728890e-01,9.999929085684016172e-01,9.999935437140266004e-01,9.999939312492642784e-01,9.999941335995572445e-01,9.999936280419206014e-01,9.999933508111098490e-01,9.999934428010419651e-01,9.999937872103146219e-01,9.999938844398457150e-01,9.999935797000034654e-01,9.999935642335913144e-01,9.999935211449155759e-01,9.999932427003841440e-01,9.999935427399577748e-01,9.999939839981379919e-01,9.999936596286715940e-01,9.999928497741166211e-01,9.999931420634311507e-01,9.999933200770101394e-01,9.999904923888607300e-01,9.999909734442553599e-01,9.999885390734561952e-01,9.999813534759596223e-01,9.999800441346451407e-01,9.999692125929868780e-01,9.999651450052624568e-01,9.999723825840192148e-01,9.999864518449612660e-01,9.999849536825422547e-01,9.999776875520183239e-01,9.999838956409803359e-01,9.999881232297411771e-01,9.999908507397776702e-01,9.999922646884442656e-01,9.999929537675598112e-01,9.999929196701486944e-01,9.999929255286588159e-01,9.999929751984382165e-01,9.999930846083771030e-01,9.999930800167931011e-01,9.999929481073195348e-01,9.999928298334452847e-01,9.999927207959444786e-01,9.999925835040812672e-01,9.999925620422800421e-01,9.999928029096736282e-01,9.999928891593299340e-01,9.999928094348433660e-01,9.999927124745227047e-01,9.999929568784864387e-01,9.999935531695882673e-01,9.999933088902253076e-01,9.999917706836640718e-01,9.999877763366384897e-01,9.999854860971026937e-01,9.999841452627151739e-01,9.999812741407367866e-01,9.999892228051976417e-01,9.999924901321719517e-01,9.999923360237517045e-01,9.999914345680736005e-01,9.999917495051704464e-01,9.999930051008050214e-01
9.999235655413940549e-01,9.999455031502293423e-01,9.999458169149875175e-01,9.999570550025964621e-01,9.999669934441044461e-01,9.999666187468392309e-01,9.999736874178779544e-01,9.999817750867805444e-01,9.999836751285329228e-01,9.999842837478354340e-01,9.999860253255974385e-01,9.999846741993678734e-01,9.999822011668584310e-01,9.999808730153745273e-01,9.999809580476721749e-01,9.999827901301614475e-01,9.999839309148228494e-01,9.999818901505932445e-01,9.999788455461384729e-01,9.999814131897437619e-01,9.999813220656506019e-01,9.999787744964123704e-01,9.999807091808179393e-01,9.999816226445545908e-01,9.999818669784872327e-01,9.999814400234754430e-01,9.999812509886396583e-01,9.999810121425980469e-01,9.999806024752615485e-01,9.999800297391630011e-01,9.999799198740220163e-01,9.999833829442650313e-01,9.999833872807357693e-01,9.999809442761034006e-01,9.999800536388647743e-01,9.999809474957146449e-01,9.999790602469147416e-01,9.999770768354210304e-01,9.999807337717356859e-01,9.999811923917150125e-01,9.999801759404363111e-01,9.999822109057276975e-01,9.999834181944606826e-01,9.999833861893421272e-01,9.999828808777238009e-01,9.999833739038876956e-01,9.999837272771401331e-01,9.999833740148460492e-01,9.999829658045200631e-01,9.999829031112312805e-01,9.999827680057933321e-01,9.999829051648703171e-01,9.999833960719115566e-01,9.999832861522008898e-01,9.999830105480214115e-01,9.999828110248927260e-01,9.999825738941581221e-01,9.999827374467713526e-01,9.999827337251190329e-01,9.999828090731170960e-01,9.999828972941031680e-01,9.999825576833245577e-01,9.999830355955054983e-01,9.999834733389434405e-01,9.999834067730262177e-01,9.999833685960766161e-01,9.999833672172826482e-01,9.999834571808605688e-01,9.999816545459907502e-01,9.999809001001267461e-01,9.999834018854016904e-01,9.999826856110303197e-01,9.999815279788890621e-01,9.999826879138709046e-01,9.999818218657310354e-01,9.999826492839929415e-01,9.999821139645064250e-01,9.999824790975253563e-01,9.999847193103050813e-01,9.999859075132917496e-01,9.999866561156522948e-01,9.999855199330340838e-01,9.999848428951736423e-01,9.999838365802133922e-01,9.999846151295059826e-01,9.999859155896047014e-01,9.999853824047022499e-01,9.999841912613192108e-01,9.999842672859813320e-01,9.999842963497940218e-01,9.999844402900635032e-01,9.999849612286197953e-01,9.999843629539100220e-01,9.999821981473360211e-01,9.999828111285751220e-01,9.999833798156032572e-01,9.999780080452183029e-01,9.999773582803754834e-01,9.999723632445238763e-01,9.999599184702674393e-01,9.999580684016109444e-01,9.999423345652758144e-01,9.999237810770864598e-01,9.999352777449530549e-01,9.999668097443645820e-01,9.999590091902064160e-01,9.999325029493775219e-01,9.999528692205785774e-01,9.999644064664607868e-01,9.999724573481216794e-01,9.999787124615977518e-01,9.999831977147550788e-01,9.999833571400813526e-01,9.999829493572178762e-01,9.999830491324246395e-01,9.999837169871170772e-01,9.999834981917956611e-01,9.999826145449333126e-01,9.999825639697519364e-01,9.999817974621691974e-01,9.999812842634128174e-01,9.999817990938026924e-01,9.999818013147887541e-01,9.999816498384461738e-01,9.999822864774614573e-01,9.999823275775270304e-01,9.999821907258592546e-01,9.999828302552487003e-01,9.999824595288373530e-01,9.999787958658998832e-01,9.999709380517742829e-01,9.999691554658056702e-01,9.999756531251478009e-01,9.999773311174067203e-01,9.999811379657330690e-01,9.999827152569196187e-01,9.999825528248038609e-01,9.999813041940797120e-01,9.999808389566169353e-01,9.999824557453393936e-01
9.999892116293267463e-01,9.999844288686290383e-01,9.999782576196594164e-01,9.999768134148325771e-01,9.999745274490123847e-01,9.999680819091736339e-01,9.999847777398827020e-01,9.999920458540145773e-01,9.999931909051156254e-01,9.999930087092252506e-01,9.999938330429358757e-01,9.999932699506643985e-01,9.999924920948615181e-01,9.999920787522569299e-01,9.999922606084510335e-01,9.999928897364043223e-01,9.999932075929791608e-01,9.999924082076177001e-01,9.999907398787399870e-01,9.999918233397693257e-01,9.999922776760286069e-01,9.999914233821982634e-01,9.999918485418675118e-01,9.999921452972557745e-01,9.999923723871688708e-01,9.999919169886197778e-01,9.999910181431914680e-01,9.999915327789494768e-01,9.999921848375379341e-01,9.999914733434707159e-01,9.999907164838077733e-01,9.999926934133327450e-01,9.999929869063635124e-01,9.999907000637904275e-01,9.999898765963735059e-01,9.999921515573078068e-01,9.999916774340817938e-01,9.999891391889832448e-01,9.999912553257672698e-01,9.999918021794655942e-01,9.999908542167759151e-01,9.999914690060904832e-01,9.999931929373815365e-01,9.999936870699457359e-01,9.999930553308331582e-01,9.999930232288534171e-01,9.999930061017039407e-01,9.999928581478343403e-01,9.999925507127045421e-01,9.999924864073364006e-01,9.999926373161542870e-01,9.999926129321465851e-01,9.999925167558103567e-01,9.999923428977126605e-01,9.999921309081400977e-01,9.999921900225672289e-01,9.999920824302535038e-01,9.999923220057098661e-01,9.999926370423963817e-01,9.999927006019788678e-01,9.999928066222310008e-01,9.999924324733910908e-01,9.999927815815681242e-01,9.999932111154521408e-01,9.999931668426143005e-01,9.999933702006273961e-01,9.999932226623968745e-01,9.999926189598227211e-01,9.999919454512564698e-01,9.999915823200353771e-01,9.999927010958344908e-01,9.999930660383142822e-01,9.999924157768873556e-01,9.999925143442851549e-01,9.999920912678135210e-01,9.999925636602711165e-01,9.999924699873190548e-01,9.999925962592897122e-01,9.999934906268208579e-01,9.999940305374366289e-01,9.999943847733447910e-01,9.999938756977826415e-01,9.999932492150946928e-01,9.999931785246189975e-01,9.999937121315269906e-01,9.999935995097075647e-01,9.999932730052023544e-01,9.999933858425720246e-01,9.999932502760202624e-01,9.999929760356280894e-01,9.999934431571091409e-01,9.999936579470158904e-01,9.999931461475171091e-01,9.999926748273537669e-01,9.999929882978904061e-01,9.999931037150417978e-01,9.999915474636509316e-01,9.999924120947980555e-01,9.999903288598943618e-01,9.999850258245714940e-01,9.999837045124877477e-01,9.999759875463496428e-01,9.999663091184629593e-01,9.999738007209089119e-01,9.999881467092563980e-01,9.999842383549548686e-01,9.999738151054771151e-01,9.999827540941623738e-01,9.999854991256142966e-01,9.999883080981817329e-01,9.999911252725723898e-01,9.999922328715911135e-01,9.999922783308647922e-01,9.999927115368336672e-01,9.999931640732029337e-01,9.999935047585495340e-01,9.999934068832772027e-01,9.999926134460110916e-01,9.999923031218713732e-01,9.999916909328021575e-01,9.999913943784122239e-01,9.999917746135906782e-01,9.999914531354079372e-01,9.999915725602477323e-01,9.999918668199825333e-01,9.999912776393102831e-01,9.999910810192886856e-01,9.999917450113571249e-01,9.999926321115708561e-01,9.999920191221463028e-01,9.999892428631937946e-01,9.999875271332712146e-01,9.999868769855311257e-01,9.999803025111759780e-01,9.999846716636966448e-01,9.999911241311565391e-01,9.999907140572759090e-01,9.999891667157498887e-01,9.999905721906543477e-01,9.999926419018265733e-01
9.999821395886101527e-01,9.999855722853681073e-01,9.999850264739507111e-01,9.999866373600525549e-01,9.999879639317441615e-01,9.999886227105889702e-01,9.999920107547950465e-01,9.999943402417557081e-01,9.999949566467876139e-01,9.999953124529383786e-01,9.999958903554215794e-01,9.999954798977341852e-01,9.999946127013572550e-01,9.999942302169984032e-01,9.999945416411719634e-01,9.999949460789139266e-01,9.999951454256006400e-01,9.999946969523989537e-01,9.999937031075205596e-01,9.999943391312626773e-01,9.999941502833280538e-01,9.999933515559860098e-01,9.999940126426736242e-01,9.999943227066978579e-01,9.999943780662761128e-01,9.999941642918201978e-01,9.999939595168143569e-01,9.999936942258500494e-01,9.999939050994726131e-01,9.999937542183943151e-01,9.999935627392915194e-01,9.999949226935314073e-01,9.999952499060782429e-01,9.999944633937047911e-01,9.999937672923806531e-01,9.999942281256153365e-01,9.999937460465844197e-01,9.999922958095339709e-01,9.999939790654934768e-01,9.999942668400763068e-01,9.999937792385935609e-01,9.999943310381240735e-01,9.999950011610962974e-01,9.999951182198856259e-01,9.999948702161418623e-01,9.999950960736896377e-01,9.999952134257910075e-01,9.999949993157315475e-01,9.999949425446175155e-01,9.999948857930576196e-01,9.999947920573504234e-01,9.999947614724078448e-01,9.999946970983728534e-01,9.999946382677080692e-01,9.999945891449897317e-01,9.999944669989417889e-01,9.999945106169434439e-01,9.999948048262012890e-01,9.999948889571896871e-01,9.999948836903058691e-01,9.999949272764752095e-01,9.999946500365695101e-01,9.999948444383335300e-01,9.999952238817968464e-01,9.999951376639728551e-01,9.999950914370856481e-01,9.999952093894535210e-01,9.999951297800180328e-01,9.999944953979138518e-01,9.999940419261292845e-01,9.999948978793327115e-01,9.999950377386994660e-01,9.999945319241305697e-01,9.999946588209240872e-01,9.999943721923045814e-01,9.999947220676403958e-01,9.999947584187793836e-01,9.999948578974908742e-01,9.999953496362650185e-01,9.999957482937134046e-01,9.999958749240249745e-01,9.999953906426526373e-01,9.999951352156131179e-01,9.999952060579744284e-01,9.999953777755763440e-01,9.999954713716761034e-01,9.999954259010337410e-01,9.999954540899125277e-01,9.999953787137201289e-01,9.999952258035591512e-01,9.999954529539536452e-01,9.999956879200908588e-01,9.999952761027088854e-01,9.999947594437799125e-01,9.999949477469272097e-01,9.999949902039588778e-01,9.999931702986941673e-01,9.999937713851068111e-01,9.999924277472018730e-01,9.999871749532758258e-01,9.999858732280699769e-01,9.999791889658808941e-01,9.999736005465820199e-01,9.999791197169543011e-01,9.999898479063631385e-01,9.999886500354477903e-01,9.999822633035364561e-01,9.999862382010178408e-01,9.999904797623457853e-01,9.999925337451713858e-01,9.999939435328997206e-01,9.999947742307995213e-01,9.999946840657685243e-01,9.999948062477415078e-01,9.999950131546029297e-01,9.999953402557366644e-01,9.999952442262838304e-01,9.999947810242701962e-01,9.999946162715787068e-01,9.999943163411444402e-01,9.999941405576464604e-01,9.999942289232421899e-01,9.999943133484521240e-01,9.999943610769150837e-01,9.999944225824037858e-01,9.999942919030218036e-01,9.999945728927741584e-01,9.999950409269331431e-01,9.999951072013573139e-01,9.999938869309517031e-01,9.999917815148364753e-01,9.999904738378972979e-01,9.999900395259828656e-01,9.999885134138821741e-01,9.999923007680990850e-01,9.999942855520203011e-01,9.999937368615974265e-01,9.999925764091130986e-01,9.999930958651930268e-01,9.999947278729450773e-01
9.999792438284202944e-01,9.999841936005395837e-01,9.999812086662132060e-01,9.999870534811634570e-01,9.999915749003776000e-01,9.999916850701993098e-01,9.999922189626886393e-01,9.999946347893455822e-01,9.999954587042338972e-01,9.999956745878080255e-01,9.999959760343699600e-01,9.999957080476633564e-01,9.999953163141981349e-01,9.999950678861750930e-01,9.999950773922137159e-01,9.999955025718918478e-01,9.999957690552037093e-01,9.999954056816022785e-01,9.999945794461382320e-01,9.999950058727336000e-01,9.999951705090097676e-01,9.999946603943499213e-01,9.999950420910863613e-01,9.999951186573525774e-01,9.999951674176372762e-01,9.999951328031784215e-01,9.999951877816783963e-01,9.999952035836940922e-01,9.999952304460748564e-01,9.999950097148939676e-01,9.999949301395645307e-01,9.999956623933030642e-01,9.999956944043333351e-01,9.999951200115901884e-01,9.999949437365103222e-01,9.999953917413222371e-01,9.999948988474898215e-01,9.999943970933600212e-01,9.999949532743812597e-01,9.999951105833133624e-01,9.999951008048810763e-01,9.999953511837702536e-01,9.999955468715597817e-01,9.999955792882246897e-01,9.999954776380945987e-01,9.999954347172206326e-01,9.999954116974549834e-01,9.999953168680804083e-01,9.999951626541587757e-01,9.999950674582578358e-01,9.999949318557810329e-01,9.999949987909531046e-01,9.999951087502267910e-01,9.999950220262689982e-01,9.999950104479466972e-01,9.999951789850456407e-01,9.999952424027469533e-01,9.999953651067698956e-01,9.999954226850604755e-01,9.999955192888592137e-01,9.999956708693389373e-01,9.999955000616864709e-01,9.999957005461510562e-01,9.999958429248181346e-01,9.999956381725496612e-01,9.999955954854158335e-01,9.999955698131088866e-01,9.999957848626763735e-01,9.999950904725665168e-01,9.999947006581351161e-01,9.999957282443574513e-01,9.999953313026708202e-01,9.999949128541629761e-01,9.999954111294755421e-01,9.999950792980598635e-01,9.999955094504002773e-01,9.999954206332404283e-01,9.999954026670820895e-01,9.999958221142151160e-01,9.999961665016599000e-01,9.999964704422836803e-01,9.999961094340505952e-01,9.999959018973640923e-01,9.999957803497636633e-01,9.999959265896904981e-01,9.999960133300191956e-01,9.999957869326863147e-01,9.999957806676320615e-01,9.999958371281536529e-01,9.999956893670969293e-01,9.999957698219077429e-01,9.999959896535983717e-01,9.999957419431666494e-01,9.999952984217088670e-01,9.999953688979985600e-01,9.999955341095301264e-01,9.999949190460029058e-01,9.999948643076095323e-01,9.999940614047773124e-01,9.999921528888080502e-01,9.999909940388533869e-01,9.999883035270613618e-01,9.999844707672309596e-01,9.999850242984393844e-01,9.999915094822426909e-01,9.999899437943895464e-01,9.999828842464921763e-01,9.999876634665270103e-01,9.999903571570030181e-01,9.999923312061582692e-01,9.999944077649161045e-01,9.999955660682644520e-01,9.999955408625282871e-01,9.999955250068524037e-01,9.999957451259433583e-01,9.999961095936669153e-01,9.999959338861117430e-01,9.999953943729451566e-01,9.999952952375679160e-01,9.999948184026834497e-01,9.999945794197628857e-01,9.999946594157336222e-01,9.999946883126540342e-01,9.999947282954053662e-01,9.999945568556540820e-01,9.999945793169899844e-01,9.999947065070955432e-01,9.999948086847325612e-01,9.999952136090541899e-01,9.999952846142150520e-01,9.999933985595816921e-01,9.999908735853750841e-01,9.999894875099926139e-01,9.999889180717218551e-01,9.999929916621113080e-01,9.999952812177070882e-01,9.999954380073177163e-01,9.999951348445392796e-01,9.999951749732645112e-01,9.999956760602799477e-01
9.999883897808103939e-01,9.999808737520652357e-01,9.999684482791053597e-01,9.999776573276903946e-01,9.999830286360520404e-01,9.999855289379411261e-01,9.999891217848926317e-01,9.999935255909804255e-01,9.999944715241326776e-01,9.999934525185381062e-01,9.999915887183306040e-01,9.999918351441010600e-01,9.999933817593955609e-01,9.999946329612612317e-01,9.999949529601508402e-01,9.999937232541924459e-01,9.999929422465356765e-01,9.999939120502858714e-01,9.999949776015455427e-01,9.999949525081319734e-01,9.999947206233628094e-01,9.999946193606774614e-01,9.999945393433335994e-01,9.999945500294415979e-01,9.999942112899589119e-01,9.999946286111480731e-01,9.999942255331006891e-01,9.999942895228741691e-01,9.999948219001453253e-01,9.999948275553833810e-01,9.999949933921925549e-01,9.999942160252430767e-01,9.999936951176096045e-01,9.999943960510790930e-01,9.999946055136206269e-01,9.999944789738037798e-01,9.999947560099826660e-01,9.999949384146020748e-01,9.999946779939818953e-01,9.999948066724755336e-01,9.999947997634990315e-01,9.999943274260658654e-01,9.999940609309305728e-01,9.999941096325528633e-01,9.999942762160571874e-01,9.999931811253190972e-01,9.999914141835688497e-01,9.999916740798653336e-01,9.999924486132840684e-01,9.999925524994068837e-01,9.999924914550319954e-01,9.999919846550255897e-01,9.999923873538136831e-01,9.999934178281364439e-01,9.999933455919745029e-01,9.999933893682282360e-01,9.999937658440103405e-01,9.999940567272460612e-01,9.999940812863314932e-01,9.999941084356578358e-01,9.999943577963676944e-01,9.999943166735647537e-01,9.999942694767014473e-01,9.999943386246741284e-01,9.999943934817565605e-01,9.999943104689918982e-01,9.999941940750431968e-01,9.999942015451779298e-01,9.999941912674330524e-01,9.999941572432362591e-01,9.999940791067274404e-01,9.999941497835607152e-01,9.999942857652968087e-01,9.999942265412755660e-01,9.999942173162708059e-01,9.999942190693218436e-01,9.999942552481115854e-01,9.999942837812341168e-01,9.999942721910883847e-01,9.999941731412036461e-01,9.999942421841296891e-01,9.999943351085676113e-01,9.999942475624266081e-01,9.999940459711069707e-01,9.999939179565444647e-01,9.999938975170152844e-01,9.999940182310638193e-01,9.999940809984764201e-01,9.999940027173579438e-01,9.999941153928375570e-01,9.999940766615509347e-01,9.999937887323540053e-01,9.999939340723358328e-01,9.999942546896818385e-01,9.999942038457447779e-01,9.999940893694656552e-01,9.999936918843559397e-01,9.999940645489004964e-01,9.999925721431282000e-01,9.999899042759352596e-01,9.999887151625443948e-01,9.999816144063515821e-01,9.999758296689833514e-01,9.999807312469783938e-01,9.999902762801866629e-01,9.999906294924585382e-01,9.999892789082878153e-01,9.999914649661150179e-01,9.999923410514384159e-01,9.999931371726233920e-01,9.999936086674097169e-01,9.999943208786135074e-01,9.999936862618596933e-01,9.999947811847960111e-01,9.999954560689729988e-01,9.999968468825954915e-01,9.999962716005939001e-01,9.999920253176242113e-01,9.999912296325419447e-01,9.999892896630626637e-01,9.999874919722060440e-01,9.999884475173530518e-01,9.999892156438363600e-01,9.999886269906710368e-01,9.999878544649618561e-01,9.999850115764274960e-01,9.999874006862228271e-01,9.999916402548478800e-01,9.999929306677586283e-01,9.999928763591015013e-01,9.999917664781605708e-01,9.999915374955890002e-01,9.999927841345197521e-01,9.999944314263302658e-01,9.999947932924442284e-01,9.999946775046737457e-01,9.999954108047859336e-01,9.999953767269289528e-01,9.999931630864011822e-01,9.999931608499537106e-01
9.997887929639546201e-01,9.998376193543663248e-01,9.998474832536885515e-01,9.998713302193209529e-01,9.999059836409287527e-01,9.998785907737328671e-01,9.999088883923832327e-01,9.999556847978965379e-01,9.999669339558749925e-01,9.999707081296946853e-01,9.999708472951169824e-01,9.999600228402414359e-01,9.999529149354202673e-01,9.999492444985662587e-01,9.999506465464946814e-01,9.999555806462012697e-01,9.999566286023764405e-01,9.999523446131206583e-01,9.999486977358174045e-01,9.999528776788793039e-01,9.999524086597375572e-01,9.999474351461685728e-01,9.999491800590476487e-01,9.999513255752390251e-01,9.999538908523391001e-01,9.999523820260947105e-01,9.999516564275836572e-01,9.999529110209550709e-01,9.999520921228395309e-01,9.999504189763683826e-01,9.999488628782273736e-01,9.999540053795499261e-01,9.999551013097516261e-01,9.999525549937970936e-01,9.999536533869104460e-01,9.999538929732807446e-01,9.999534015405515675e-01,9.999525415369134862e-01,9.999542335208388977e-01,9.999557700321020093e-01,9.999556567308900412e-01,9.999555923277512193e-01,9.999550899665337056e-01,9.999554033929598518e-01,9.999556384791503660e-01,9.999533318914473057e-01,9.999514922274101991e-01,9.999511733331019059e-01,9.999516856732952874e-01,9.999513048278458882e-01,9.999490946247533429e-01,9.999501832899113651e-01,9.999509936351387296e-01,9.999520307392231189e-01,9.999536524810537230e-01,9.999541776669502724e-01,9.999541476063313894e-01,9.999548375781159848e-01,9.999559065254288726e-01,9.999555522554146592e-01,9.999556131115241442e-01,9.999551820510532707e-01,9.999557868031843100e-01,9.999561616568826139e-01,9.999556650509475730e-01,9.999556695365754422e-01,9.999556775364908390e-01,9.999551713190157898e-01,9.999539508971793111e-01,9.999539956697844900e-01,9.999558911549684126e-01,9.999554381756752264e-01,9.999546480576100294e-01,9.999555583235633094e-01,9.999529018678003922e-01,9.999556526709056925e-01,9.999526851206610445e-01,9.999537097937718499e-01,9.999596749294141773e-01,9.999617755784129258e-01,9.999634171108482406e-01,9.999603682663291693e-01,9.999588087885058485e-01,9.999572244341834448e-01,9.999623807489115279e-01,9.999650665122317150e-01,9.999613613545079716e-01,9.999590233710478060e-01,9.999600560877297539e-01,9.999593402135360520e-01,9.999623857329424936e-01,9.999653952254448086e-01,9.999623048934154212e-01,9.999552554436377250e-01,9.999576555637759157e-01,9.999564769896096550e-01,9.999367175114457496e-01,9.999272346467478201e-01,9.998883190564811230e-01,9.998033479496371001e-01,9.998231927456799895e-01,9.997535347938537598e-01,9.997270731255412102e-01,9.998011587013024837e-01,9.999219061719486490e-01,9.999134995159693062e-01,9.998702714656246826e-01,9.999208813096629456e-01,9.999398927247966640e-01,9.999499904406548012e-01,9.999542742516496219e-01,9.999544695056101773e-01,9.999537362709816080e-01,9.999560228643531445e-01,9.999569598039670382e-01,9.999586977719445713e-01,9.999572367269138340e-01,9.999538366973865777e-01,9.999541068318649195e-01,9.999523701117141172e-01,9.999513812144869007e-01,9.999526629180763848e-01,9.999531404864683282e-01,9.999530307468376122e-01,9.999530045461142436e-01,9.999504080406040885e-01,9.999530316272284836e-01,9.999579350733256433e-01,9.999564924546575639e-01,9.999444858476636000e-01,9.999246879888232797e-01,9.999287336977431551e-01,9.999457742997037712e-01,9.999574574976577424e-01,9.999599040493194479e-01,9.999550677857769188e-01,9.999564249264949467e-01,9.999589689577987883e-01,9.999566448204859626e-01,9.999546376056969166e-01
9.999235291106742807e-01,9.998603403364541009e-01,9.995889800484292209e-01,9.994641916709952056e-01,9.993296636384911835e-01,9.993570122169330716e-01,9.997674289188580588e-01,9.998822221823502332e-01,9.998963232574169524e-01,9.998413828579941764e-01,9.997654219769174233e-01,9.998028283007442951e-01,9.998657676478615031e-01,9.999037142260931432e-01,9.999063461073092185e-01,9.998852280696155503e-01,9.998564214911311865e-01,9.998805085560888983e-01,9.999125056565389968e-01,9.998911272705299780e-01,9.998778270382899791e-01,9.998906695400364697e-01,9.998858554536127485e-01,9.998875224700896069e-01,9.998923066450515762e-01,9.998937865966581739e-01,9.998930511719663627e-01,9.998912686351104639e-01,9.998912794617353939e-01,9.998896558608976193e-01,9.998886786706862040e-01,9.998913369199726731e-01,9.998927388151059859e-01,9.998846758026047610e-01,9.998888330592308193e-01,9.998946476989658549e-01,9.998837902749073692e-01,9.998811382465646602e-01,9.998876167082926258e-01,9.998886167304590344e-01,9.998845579466433264e-01,9.998904528474668041e-01,9.998925078325555660e-01,9.998912900118739344e-01,9.998910160284140147e-01,9.998873200747766532e-01,9.998825254224357195e-01,9.998771658283658326e-01,9.998754819971509278e-01,9.998763010808033869e-01,9.998699218995170668e-01,9.998702066659461707e-01,9.998770375386811793e-01,9.998741061281180009e-01,9.998750945378560573e-01,9.998856640522717498e-01,9.998836007216596045e-01,9.998885717359371483e-01,9.998899944330332801e-01,9.998899020720273256e-01,9.999033944841357879e-01,9.998936786505510099e-01,9.998887665497022681e-01,9.999009879611548968e-01,9.999010016617830843e-01,9.998929501816746779e-01,9.998872982105240226e-01,9.998896692486596294e-01,9.998805805807933211e-01,9.998668487969553098e-01,9.998993712360970676e-01,9.999000441675889306e-01,9.998813759011682123e-01,9.998885206659906544e-01,9.998896541874273680e-01,9.999056662782095373e-01,9.998926026964909397e-01,9.998824276553932577e-01,9.999053768915473484e-01,9.999212616821750998e-01,9.999291551648639143e-01,9.999140402869670652e-01,9.999006676225690171e-01,9.999087361356941983e-01,9.999126614129636437e-01,9.999040261027403176e-01,9.998934076575096697e-01,9.998966170605854131e-01,9.999017302689026110e-01,9.998964832775527611e-01,9.998923979146638885e-01,9.998907011831761338e-01,9.998872874202788807e-01,9.998876437894068658e-01,9.998889999187667854e-01,9.998907908957335167e-01,9.998944267281331122e-01,9.998939035940566100e-01,9.998970242595532909e-01,9.999029541140771471e-01,9.999043620555312373e-01,9.999049546968308277e-01,9.999053310966701247e-01,9.999005098216002807e-01,9.998943907557986677e-01,9.998562207183567807e-01,9.997958699386799708e-01,9.998112025496084243e-01,9.998452727595577016e-01,9.998623289866372943e-01,9.998796019863220863e-01,9.998902301886118948e-01,9.998938793214620091e-01,9.998968579748179764e-01,9.999004281417001039e-01,9.999293611544999294e-01,9.999211256217677146e-01,9.998653475777246058e-01,9.998351662361528724e-01,9.998036696633789688e-01,9.997912580292904750e-01,9.997762880375375971e-01,9.996873847558163106e-01,9.997041189053561538e-01,9.997700505045941100e-01,9.997186982946004719e-01,9.996862687694374472e-01,9.997656365594593808e-01,9.998349643283290789e-01,9.998808034215471707e-01,9.998845273294136859e-01,9.998264205351006240e-01,9.997874300461262465e-01,9.997749641042901203e-01,9.997955397557234392e-01,9.998471005383180454e-01,9.999077869506436400e-01,9.999131392833078280e-01,9.998834829748375341e-01,9.998764662450412288e-01
9.996071364148519933e-01,9.995939832006115466e-01,9.994917798321694136e-01,9.995303426985628903e-01,9.996075038216076791e-01,9.996227555384393781e-01,9.997750951879424974e-01,9.998785910429432988e-01,9.999038258902146481e-01,9.998974886620999314e-01,9.998887475521769375e-01,9.998727188212797046e-01,9.998563312692567706e-01,9.998534511541947722e-01,9.998573052580468357e-01,9.998618796234950423e-01,9.998621941049350426e-01,9.998562053806381300e-01,9.998471577564487234e-01,9.998509882861981168e-01,9.998545995185850188e-01,9.998499968060059473e-01,9.998533881152980030e-01,9.998559670930262655e-01,9.998569841409334913e-01,9.998534840269712731e-01,9.998532781755784526e-01,9.998562491819029674e-01,9.998537643405143172e-01,9.998506134870694950e-01,9.998490060388576239e-01,9.998562763648806140e-01,9.998586041328962892e-01,9.998529514559777454e-01,9.998544929840136319e-01,9.998559369414579123e-01,9.998555697238771245e-01,9.998557690269080922e-01,9.998576940852217376e-01,9.998600165272364393e-01,9.998599842510884628e-01,9.998591665207641199e-01,9.998559106898028404e-01,9.998563754488714039e-01,9.998588673770427704e-01,9.998541242239298299e-01,9.998358821612782776e-01,9.998275308607844636e-01,9.998374704591697082e-01,9.998377191368490458e-01,9.998335648415377364e-01,9.998362689366331324e-01,9.998414388246601447e-01,9.998442342475755140e-01,9.998481670336332172e-01,9.998502225207630545e-01,9.998500580550171435e-01,9.998567317961715162e-01,9.998607718589482829e-01,9.998602439009118825e-01,9.998638135148212314e-01,9.998586704605259001e-01,9.998611624614568427e-01,9.998705830221297219e-01,9.998667650797870010e-01,9.998623165156459436e-01,9.998679283744422719e-01,9.998636939126299694e-01,9.998506230913335457e-01,9.998487424891209230e-01,9.998644441948272288e-01,9.998680495482403785e-01,9.998588634625775740e-01,9.998641173006035388e-01,9.998561939137289301e-01,9.998630039481213316e-01,9.998509809665847570e-01,9.998582569241989404e-01,9.998803655253141187e-01,9.998806637595407665e-01,9.998918460260028951e-01,9.998820980108575895e-01,9.998670468339696527e-01,9.998726506019011140e-01,9.998794626590097323e-01,9.998838739847997203e-01,9.998778358713025227e-01,9.998730666266055778e-01,9.998708861094200984e-01,9.998685390892205760e-01,9.998720996081829071e-01,9.998764821793884039e-01,9.998742374446010217e-01,9.998577936785295606e-01,9.998572690674336627e-01,9.998542167595587671e-01,9.997848125058226287e-01,9.997667466232087463e-01,9.996780502842739224e-01,9.994650865555740893e-01,9.994150791899301112e-01,9.993354933103546500e-01,9.992655110545456409e-01,9.993467787280678749e-01,9.997389162890613079e-01,9.997252377797849476e-01,9.995806399674620479e-01,9.997300084796734154e-01,9.997909232770325616e-01,9.998254855308914557e-01,9.998526605340884998e-01,9.998574793862644583e-01,9.998513155442196876e-01,9.998622334096580744e-01,9.998711958905914798e-01,9.998762501782039180e-01,9.998714271496282890e-01,9.998512636520899832e-01,9.998451675637625158e-01,9.998358839802676812e-01,9.998280557483667508e-01,9.998345772619359195e-01,9.998374821007018909e-01,9.998384326318046078e-01,9.998309991351561621e-01,9.998338947334559634e-01,9.998558961960952729e-01,9.998688406631117687e-01,9.998641850397689268e-01,9.998058470373507589e-01,9.997481292812153697e-01,9.998075721814529970e-01,9.998922210725140758e-01,9.999367884374805726e-01,9.999131400982150808e-01,9.998523673421004787e-01,9.998761198221473023e-01,9.998819100219407119e-01,9.998733271204400808e-01,9.998582082334905863e-01
9.999849439036552212e-01,9.999809690179972677e-01,9.999728845305071445e-01,9.999708636714785825e-01,9.999665488139726222e-01,9.999614070875395555e-01,9.999765538068459136e-01,9.999874998002269422e-01,9.999894104321356281e-01,9.999901536839388427e-01,9.999923771219982882e-01,9.999908574218352442e-01,9.999888132424530340e-01,9.999877425561862765e-01,9.999880943141761236e-01,9.999900036191320396e-01,9.999907067176536657e-01,9.999892159503360745e-01,9.999853297895242576e-01,9.999872859707465977e-01,9.999883605623836047e-01,9.999861768737901002e-01,9.999868352597331977e-01,9.999879753386267112e-01,9.999889531227381667e-01,9.999880369978200179e-01,9.999860750331208692e-01,9.999867180158616975e-01,9.999880467821640195e-01,9.999871375039219856e-01,9.999858189503356698e-01,9.999891521219979040e-01,9.999896733588684583e-01,9.999857310403967858e-01,9.999854442785363062e-01,9.999885326424191589e-01,9.999874245340834022e-01,9.999842652323422953e-01,9.999877188629398006e-01,9.999883185846556444e-01,9.999871596328375745e-01,9.999878826165513601e-01,9.999895251557973097e-01,9.999903102816460887e-01,9.999895697110332549e-01,9.999895566634222632e-01,9.999896511963015655e-01,9.999895026840022183e-01,9.999894479833528749e-01,9.999894099573793937e-01,9.999890181788941845e-01,9.999888519769228878e-01,9.999888920483499533e-01,9.999889399641688215e-01,9.999888836437094142e-01,9.999890623075771146e-01,9.999891647366894176e-01,9.999891665966060827e-01,9.999892784207986551e-01,9.999894227848926676e-01,9.999894841375862597e-01,9.999890828075876925e-01,9.999895086602919037e-01,9.999899877511779778e-01,9.999897684829193167e-01,9.999896917661317275e-01,9.999898836413194658e-01,9.999893799895289703e-01,9.999882859183344408e-01,9.999874682807785575e-01,9.999893635513217305e-01,9.999899163440204575e-01,9.999892394971539034e-01,9.999892462283241912e-01,9.999882117253946490e-01,9.999884571861912264e-01,9.999887053818383720e-01,9.999894961047175457e-01,9.999906793882473721e-01,9.999914625159362913e-01,9.999917660952633014e-01,9.999908871677689604e-01,9.999903146172073320e-01,9.999900971833994845e-01,9.999907750179772847e-01,9.999907440242168377e-01,9.999905897702774382e-01,9.999908341669652145e-01,9.999904628257354489e-01,9.999901027822488686e-01,9.999906488392298343e-01,9.999910171627561795e-01,9.999903421658018488e-01,9.999891831657805596e-01,9.999897825164225651e-01,9.999900782013355638e-01,9.999881260982874664e-01,9.999890346007305197e-01,9.999862632985241362e-01,9.999788273580634268e-01,9.999786293901706813e-01,9.999709311796323163e-01,9.999617935936839785e-01,9.999641156646248419e-01,9.999823301059223013e-01,9.999767542722111102e-01,9.999644311756128445e-01,9.999743930202384945e-01,9.999779406771267531e-01,9.999811841353221098e-01,9.999856757231100346e-01,9.999887607682467205e-01,9.999899600879871286e-01,9.999892932773946086e-01,9.999892194146013935e-01,9.999898928508628160e-01,9.999898329715506407e-01,9.999893363201408647e-01,9.999892179339440190e-01,9.999887655594648095e-01,9.999885365295995143e-01,9.999888317679506144e-01,9.999885781498960569e-01,9.999886325149418553e-01,9.999888376460148720e-01,9.999884555554672261e-01,9.999884890530665871e-01,9.999891059460424003e-01,9.999895990340519347e-01,9.999886508203417179e-01,9.999842357574380003e-01,9.999798446315253386e-01,9.999779900917928899e-01,9.999683325877413154e-01,9.999767875760880997e-01,9.999871747604629491e-01,9.999868038285057992e-01,9.999846207756490912e-01,9.999865374347791658e-01,9.999890924973442452e-01
9.998498602653853595e-01,9.998376528528751805e-01,9.998339736048365012e-01,9.998276678234105930e-01,9.998382226476678625e-01,9.998267837654566392e-01,9.998433601140277460e-01,9.999293253276846372e-01,9.999403316687676124e-01,9.999471136907231994e-01,9.999535789502260741e-01,9.999362518574343994e-01,9.999199772719293833e-01,9.999123952293302864e-01,9.999114432139322162e-01,9.999253389614750631e-01,9.999303420700016432e-01,9.999177375502767973e-01,9.998979078663978726e-01,9.999108655683812685e-01,9.999182827596087009e-01,9.999068980469019152e-01,9.999079692424857058e-01,9.999154469187487848e-01,9.999202564504230395e-01,9.999112902078195475e-01,9.999029037571744993e-01,9.999061523776617832e-01,9.999070342382765375e-01,9.998985800484661013e-01,9.998992615874158219e-01,9.999248248423100449e-01,9.999254040885716677e-01,9.999017865557107143e-01,9.999031558909337036e-01,9.999166318448260427e-01,9.999059766123536974e-01,9.998942410165909678e-01,9.999135524121811613e-01,9.999159204089664854e-01,9.999109459531609900e-01,9.999214359704637900e-01,9.999268472456606105e-01,9.999298637121682987e-01,9.999272038548951969e-01,9.999279745534295216e-01,9.999270425614668056e-01,9.999248050226015039e-01,9.999254930517054163e-01,9.999231842157314532e-01,9.999206530046649277e-01,9.999213712144410238e-01,9.999211801550700329e-01,9.999221409379970282e-01,9.999231897454592399e-01,9.999224170242086984e-01,9.999227947337203659e-01,9.999246207953547128e-01,9.999250724140438251e-01,9.999247508385451511e-01,9.999253057030728087e-01,9.999243232086882927e-01,9.999272527638822794e-01,9.999286426609614864e-01,9.999262842975440435e-01,9.999263457648339681e-01,9.999275733425747603e-01,9.999262878482113592e-01,9.999210909445537254e-01,9.999189329100772738e-01,9.999277248643920757e-01,9.999315696841222234e-01,9.999296473761205561e-01,9.999265464794007130e-01,9.999175757911871187e-01,9.999236191870295443e-01,9.999214953495538794e-01,9.999206175198196433e-01,9.999310105340555310e-01,9.999366937117883936e-01,9.999433661287184805e-01,9.999378250286099501e-01,9.999319390699383803e-01,9.999319611670216545e-01,9.999344723182730377e-01,9.999367331911344081e-01,9.999342710216296837e-01,9.999344947136705741e-01,9.999329199781641364e-01,9.999294944573193789e-01,9.999327401601476595e-01,9.999367544587585144e-01,9.999357426786446013e-01,9.999255885340971872e-01,9.999271297638188116e-01,9.999336482433136553e-01,9.998985692145652138e-01,9.998941019366611727e-01,9.998624478321289644e-01,9.997911369137000293e-01,9.997637339401990175e-01,9.996386857528705150e-01,9.996195999556221068e-01,9.996770301077049226e-01,9.998465636745095253e-01,9.998381857294589281e-01,9.997537454764824361e-01,9.998446194076677784e-01,9.998698132258141413e-01,9.998928482455085032e-01,9.999149817667785101e-01,9.999259205214912072e-01,9.999264948710333556e-01,9.999250865657813847e-01,9.999241475670714863e-01,9.999232183326967061e-01,9.999235132127068937e-01,9.999252214256557636e-01,9.999260890181176364e-01,9.999270122207235545e-01,9.999279133480740711e-01,9.999279411786119454e-01,9.999309606646420434e-01,9.999326692122849636e-01,9.999330268765334040e-01,9.999403752299258485e-01,9.999500389603781514e-01,9.999482734237972181e-01,9.999377779968199320e-01,9.999223549893940799e-01,9.998826638402533717e-01,9.998592717165593058e-01,9.998853295110166073e-01,9.998995329005992971e-01,9.999221940452116542e-01,9.999273229550453834e-01,9.999254079448292032e-01,9.999263661738950759e-01,9.999287634418578818e-01,9.999228394881356508e-01
9.999921501421340508e-01,9.999898291680437978e-01,9.999815359533386072e-01,9.999822821173438570e-01,9.999826902003405849e-01,9.999825710328877904e-01,9.999881677404118818e-01,9.999930347707959299e-01,9.999943878042358847e-01,9.999945636823213135e-01,9.999951822883303976e-01,9.999946154043755087e-01,9.999938450901026954e-01,9.999933761946522282e-01,9.999934919214865658e-01,9.999941884962026961e-01,9.999946394545986550e-01,9.999939810522846528e-01,9.999926782948023174e-01,9.999934629895506077e-01,9.999938141959319182e-01,9.999928512370388489e-01,9.999930863027657324e-01,9.999935047135295463e-01,9.999937013071757974e-01,9.999933721132947539e-01,9.999930659423625912e-01,9.999931150932752644e-01,9.999934811980892846e-01,9.999931922998257505e-01,9.999928551974335278e-01,9.999941892378956254e-01,9.999945268673400278e-01,9.999927941726127756e-01,9.999926327318462427e-01,9.999940404732114985e-01,9.999932236491986259e-01,9.999916281021796749e-01,9.999931167544673372e-01,9.999935362880023604e-01,9.999931443594505254e-01,9.999938579417175788e-01,9.999943297784739116e-01,9.999944969358693925e-01,9.999942790132081427e-01,9.999943572452139051e-01,9.999944198580124066e-01,9.999943649308988824e-01,9.999942162949082558e-01,9.999941098440103815e-01,9.999941002479317831e-01,9.999941250639494683e-01,9.999939954818728438e-01,9.999939631970846676e-01,9.999941022788334521e-01,9.999942012000246905e-01,9.999941250862320885e-01,9.999940551551844692e-01,9.999940668058115989e-01,9.999940909119686694e-01,9.999941294322525209e-01,9.999940485299703141e-01,9.999940915149636567e-01,9.999942048721095489e-01,9.999942259273666423e-01,9.999942728290989180e-01,9.999942425715744321e-01,9.999940520192467375e-01,9.999934731495159212e-01,9.999932677264951053e-01,9.999942474632916856e-01,9.999942115941848897e-01,9.999939530744086369e-01,9.999940736620374082e-01,9.999935960640868871e-01,9.999938648038551037e-01,9.999936584645183757e-01,9.999940550360406633e-01,9.999947427395454724e-01,9.999950664646348741e-01,9.999954000868456205e-01,9.999948469994706102e-01,9.999946208963592653e-01,9.999946530260785948e-01,9.999948969166325696e-01,9.999948845784274454e-01,9.999946282009659626e-01,9.999946158764032589e-01,9.999945862655295059e-01,9.999943707257443748e-01,9.999944904870972096e-01,9.999945422650853288e-01,9.999945312351883331e-01,9.999942113513498043e-01,9.999941944229249202e-01,9.999943112111395749e-01,9.999933767335278390e-01,9.999937542725092499e-01,9.999923526356724324e-01,9.999892162140895380e-01,9.999880957748246146e-01,9.999824945207365090e-01,9.999744301803730195e-01,9.999781034111947520e-01,9.999890497929300182e-01,9.999874838076721062e-01,9.999811963225511136e-01,9.999859560530239833e-01,9.999887350641074590e-01,9.999909763291725540e-01,9.999929018058537622e-01,9.999939314548100810e-01,9.999940500110824360e-01,9.999941649543870881e-01,9.999943582529340347e-01,9.999944765040709171e-01,9.999943812276796962e-01,9.999940531993161130e-01,9.999938154805931845e-01,9.999934843121991435e-01,9.999932655996417452e-01,9.999935321861812554e-01,9.999936813733256713e-01,9.999936377043923130e-01,9.999937817478894431e-01,9.999935856526462885e-01,9.999935861237645440e-01,9.999940500219963724e-01,9.999944638570923416e-01,9.999934495144771063e-01,9.999897596999289817e-01,9.999871096488277544e-01,9.999823946473043179e-01,9.999728790553490398e-01,9.999859794361327658e-01,9.999933561571197060e-01,9.999936493068162235e-01,9.999930222666080226e-01,9.999935041100798117e-01,9.999941252153803362e-01
9.999813026661286131e-01,9.999723089895269368e-01,9.999570300969935488e-01,9.999603456526529044e-01,9.999502614446100779e-01,9.999390166158264037e-01,9.999718127000960521e-01,9.999859499339436297e-01,9.999874143823035411e-01,9.999881084468142944e-01,9.999899520962571842e-01,9.999883313739701407e-01,9.999864098026591819e-01,9.999852676482987590e-01,9.999857635075386497e-01,9.999869200073590036e-01,9.999873194019528455e-01,9.999862396280150278e-01,9.999831073419045424e-01,9.999845793281565420e-01,9.999858819810469868e-01,9.999841454537090613e-01,9.999842810957488837e-01,9.999855519254197134e-01,9.999862833146835328e-01,9.999853685121706803e-01,9.999838566945982166e-01,9.999837539362488315e-01,9.999846810060262214e-01,9.999839542469999287e-01,9.999826275925443042e-01,9.999863957073102938e-01,9.999866790603846312e-01,9.999831057211849838e-01,9.999825723734829808e-01,9.999850425374461338e-01,9.999838146468391642e-01,9.999796227493789047e-01,9.999834529207873857e-01,9.999840359778318089e-01,9.999823018897586735e-01,9.999846321097720647e-01,9.999872462840357912e-01,9.999880293162277667e-01,9.999872601874812972e-01,9.999875362618695362e-01,9.999879207944104564e-01,9.999878393209655769e-01,9.999873772776481928e-01,9.999868055047045345e-01,9.999868766326471814e-01,9.999870293368076091e-01,9.999868581980990712e-01,9.999868279328438803e-01,9.999865517766011180e-01,9.999865697827772237e-01,9.999866900298002292e-01,9.999865863983359304e-01,9.999866310936340597e-01,9.999866683474465390e-01,9.999867351180000696e-01,9.999864711762711522e-01,9.999867034293856705e-01,9.999872298158152262e-01,9.999872110465730657e-01,9.999871172813072917e-01,9.999872894595682737e-01,9.999865863846935099e-01,9.999855629075682373e-01,9.999847275284992065e-01,9.999863324765101424e-01,9.999874490713409614e-01,9.999864533638174180e-01,9.999865206236790982e-01,9.999855692603887292e-01,9.999859745139474398e-01,9.999857156335565378e-01,9.999863517996345763e-01,9.999875400899327360e-01,9.999884627832216211e-01,9.999892004407229251e-01,9.999881746334722266e-01,9.999872865173529135e-01,9.999876290949032409e-01,9.999886710038481397e-01,9.999883716145632206e-01,9.999875727471589926e-01,9.999880218492762651e-01,9.999876590936764842e-01,9.999872286462050397e-01,9.999880958648645901e-01,9.999884032267800649e-01,9.999878528269618982e-01,9.999866923562876764e-01,9.999871336394789978e-01,9.999875398607400712e-01,9.999834314639883814e-01,9.999849610894671059e-01,9.999819900222064462e-01,9.999679103057133034e-01,9.999615683882439043e-01,9.999350422149291262e-01,9.999210510795819573e-01,9.999420672356791329e-01,9.999758382946311031e-01,9.999717436567152617e-01,9.999542419463978149e-01,9.999700995722378138e-01,9.999762930729048094e-01,9.999809990385983838e-01,9.999850277281439048e-01,9.999862573949940270e-01,9.999862675886106445e-01,9.999867477490624879e-01,9.999870683677727357e-01,9.999875284420340904e-01,9.999874797249503899e-01,9.999865446307012462e-01,9.999860955131225637e-01,9.999856681597520947e-01,9.999859123745409306e-01,9.999860364869164187e-01,9.999857687689654995e-01,9.999857915381653584e-01,9.999861827682252624e-01,9.999864136516407598e-01,9.999871857880862080e-01,9.999876833562666434e-01,9.999876192423471366e-01,9.999851039565328392e-01,9.999794676150486339e-01,9.999762453371658921e-01,9.999734455013822298e-01,9.999641451249772217e-01,9.999738139340479393e-01,9.999846214159333613e-01,9.999828241325303679e-01,9.999809658675076207e-01,9.999843112545931945e-01,9.999865587587919435e-01
9.999683611713408027e-01,9.999727121612522751e-01,9.999614254920743406e-01,9.999725680409028428e-01,9.999806198029546067e-01,9.999760192531539360e-01,9.999805880343046738e-01,9.999870967167225899e-01,9.999894399352342589e-01,9.999899435615589027e-01,9.999908193385635968e-01,9.999898901951382868e-01,9.999884013896007673e-01,9.999877007176110055e-01,9.999878445514696068e-01,9.999889314040046884e-01,9.999898471533015254e-01,9.999890430963205290e-01,9.999872099124331726e-01,9.999881803341850173e-01,9.999885852039369638e-01,9.999869604389459710e-01,9.999873211563681252e-01,9.999881977719269344e-01,9.999886009327383363e-01,9.999884278640820412e-01,9.999883106365814456e-01,9.999882481206441298e-01,9.999881998965065577e-01,9.999874267514314852e-01,9.999872068656259216e-01,9.999894079955993220e-01,9.999894877528276993e-01,9.999880676014072378e-01,9.999877878544793930e-01,9.999882565371081000e-01,9.999872985717956908e-01,9.999859200943319593e-01,9.999874496452321182e-01,9.999880397790548159e-01,9.999879855213293922e-01,9.999884642547840485e-01,9.999890660474193282e-01,9.999893244821578264e-01,9.999889578439251636e-01,9.999889601913309889e-01,9.999886045952735003e-01,9.999883850732658175e-01,9.999886313935348880e-01,9.999892577015998540e-01,9.999890946110099321e-01,9.999885922543398920e-01,9.999886283467276371e-01,9.999884223207118339e-01,9.999881974745221669e-01,9.999883746022533160e-01,9.999887372678131214e-01,9.999889088849158725e-01,9.999885875749896513e-01,9.999887544181547128e-01,9.999892170062594232e-01,9.999888755301071797e-01,9.999889599839661969e-01,9.999896159079071367e-01,9.999896351810093620e-01,9.999892068826738978e-01,9.999891395837039454e-01,9.999892859614192275e-01,9.999870203628233867e-01,9.999863084376556799e-01,9.999895372238825075e-01,9.999889979872023105e-01,9.999882034117035801e-01,9.999890107765168068e-01,9.999882997644817806e-01,9.999890878016230999e-01,9.999886509594944073e-01,9.999882834581512725e-01,9.999895893151915516e-01,9.999907744822849054e-01,9.999913844985712785e-01,9.999904108735790942e-01,9.999898179466981674e-01,9.999897002444413374e-01,9.999903515818004962e-01,9.999908078571024816e-01,9.999898689611654845e-01,9.999899483282206347e-01,9.999901626615610439e-01,9.999898228788879351e-01,9.999902827548794448e-01,9.999905713038970134e-01,9.999897989364399109e-01,9.999887401554587996e-01,9.999889662567511550e-01,9.999890901544858934e-01,9.999875194243941223e-01,9.999871051577429171e-01,9.999853010522201657e-01,9.999815607279742835e-01,9.999781733040435938e-01,9.999702376226196066e-01,9.999618628389725927e-01,9.999611604325764347e-01,9.999796788779349299e-01,9.999675927174394019e-01,9.999352039885707200e-01,9.999559205061814282e-01,9.999688820280425716e-01,9.999762801799079170e-01,9.999839295651327120e-01,9.999891230372668360e-01,9.999904774522292428e-01,9.999898647965892451e-01,9.999894556749495678e-01,9.999899856848060153e-01,9.999897212810537894e-01,9.999889465298110736e-01,9.999885088354858453e-01,9.999876802421567845e-01,9.999874959949011100e-01,9.999871307854846236e-01,9.999867636352064437e-01,9.999866208636376541e-01,9.999860675443414948e-01,9.999859674699109746e-01,9.999867376454858459e-01,9.999872542948651244e-01,9.999883693244555616e-01,9.999870803403609898e-01,9.999785424806759693e-01,9.999739566683274461e-01,9.999765949560242007e-01,9.999809337423357647e-01,9.999882561942285975e-01,9.999904423684711219e-01,9.999909613143245224e-01,9.999904349988355534e-01,9.999891055940679507e-01,9.999887353296799120e-01
