loss,accuracy,val_loss,val_accuracy,lr
1.653909683227539,0.21799999475479126,1.5535590648651123,0.30177778005599976,0.001
1.6274482011795044,0.21400000154972076,1.5023218393325806,0.45577776432037354,0.001
1.5563112497329712,0.27799999713897705,1.4531389474868774,0.609333336353302,0.001
1.4947381019592285,0.36399999260902405,1.4068082571029663,0.7166666388511658,0.001
1.471129059791565,0.3880000114440918,1.3625415563583374,0.7726666927337646,0.001
1.40008544921875,0.41600000858306885,1.3201043605804443,0.8091111183166504,0.001
1.3998645544052124,0.46000000834465027,1.2797502279281616,0.8346666693687439,0.001
1.3528800010681152,0.49799999594688416,1.2412458658218384,0.8528888821601868,0.001
1.301174283027649,0.5239999890327454,1.2037088871002197,0.8668888807296753,0.001
1.2543041706085205,0.6119999885559082,1.1686747074127197,0.8766666650772095,0.001
1.2149102687835693,0.6359999775886536,1.134048342704773,0.8842222094535828,0.001
1.1898267269134521,0.6700000166893005,1.101211667060852,0.8884444236755371,0.001
1.1648690700531006,0.671999990940094,1.069140076637268,0.8915555477142334,0.001
1.1296855211257935,0.7239999771118164,1.0384620428085327,0.8933333158493042,0.001
1.1003434658050537,0.7379999756813049,1.0087367296218872,0.895111083984375,0.001
1.0837734937667847,0.734000027179718,0.9808456897735596,0.8960000276565552,0.001
1.0549538135528564,0.734000027179718,0.9538949728012085,0.8960000276565552,0.001
1.0026477575302124,0.777999997138977,0.9277008175849915,0.8966666460037231,0.001
1.0137654542922974,0.765999972820282,0.9025229811668396,0.8962222337722778,0.001
0.9571611881256104,0.8180000185966492,0.8785740733146667,0.8962222337722778,0.001
0.9381195902824402,0.8240000009536743,0.8553394079208374,0.8962222337722778,0.001
0.928402304649353,0.8180000185966492,0.8331995010375977,0.8962222337722778,0.001
0.8953042030334473,0.8320000171661377,0.8119240403175354,0.8973333239555359,0.001
0.8746165037155151,0.8180000185966492,0.7912841439247131,0.8982222080230713,0.001
0.8740418553352356,0.8399999737739563,0.7713499665260315,0.8982222080230713,0.001
0.8403146862983704,0.8379999995231628,0.7527608871459961,0.8991110920906067,0.001
0.8172932267189026,0.8479999899864197,0.7348394393920898,0.8991110920906067,0.001
0.8097140789031982,0.8399999737739563,0.7175868153572083,0.8995555639266968,0.001
0.7886223196983337,0.8560000061988831,0.700727641582489,0.8999999761581421,0.001
0.7460745573043823,0.8659999966621399,0.6848673820495605,0.8999999761581421,0.001
0.7513943910598755,0.8659999966621399,0.6697853207588196,0.8997777700424194,0.001
0.728705883026123,0.8659999966621399,0.6549698114395142,0.8997777700424194,0.001
0.7258515357971191,0.8579999804496765,0.6412574052810669,0.9006666541099548,0.001
0.6991826295852661,0.8619999885559082,0.6278457641601562,0.9013333320617676,0.001
0.6809430718421936,0.8859999775886536,0.6153043508529663,0.9013333320617676,0.001
0.6856719851493835,0.8600000143051147,0.6031447649002075,0.9020000100135803,0.001
0.6553186774253845,0.8820000290870667,0.59159916639328,0.9020000100135803,0.001
0.6541122794151306,0.878000020980835,0.5800945162773132,0.9020000100135803,0.001
0.633070707321167,0.8840000033378601,0.5695554614067078,0.9024444222450256,0.001
0.6249009966850281,0.8840000033378601,0.5595847964286804,0.9031111001968384,0.001
0.6109395027160645,0.8920000195503235,0.5498771667480469,0.903333306312561,0.001
0.6018962264060974,0.8799999952316284,0.5405091643333435,0.9035555720329285,0.001
0.5998975038528442,0.8899999856948853,0.5315446257591248,0.9035555720329285,0.001
0.5923134684562683,0.8859999775886536,0.5232044458389282,0.9039999842643738,0.001
0.5675435662269592,0.8960000276565552,0.5150827169418335,0.9042222499847412,0.001
0.5865818858146667,0.8799999952316284,0.5073775053024292,0.9042222499847412,0.001
0.566153347492218,0.8880000114440918,0.4999048411846161,0.9048888683319092,0.001
0.5405746698379517,0.9039999842643738,0.4931837022304535,0.9048888683319092,0.001
0.5535358786582947,0.8960000276565552,0.48629388213157654,0.9048888683319092,0.001
0.5264954566955566,0.8939999938011169,0.4799540042877197,0.9051111340522766,0.001
0.5290592312812805,0.8799999952316284,0.4738079309463501,0.9057777523994446,0.001
0.521823525428772,0.9020000100135803,0.46803608536720276,0.9057777523994446,0.001
0.5138192176818848,0.906000018119812,0.4627489745616913,0.9057777523994446,0.001
0.5226877927780151,0.9039999842643738,0.45718246698379517,0.9057777523994446,0.001
0.5018848776817322,0.9020000100135803,0.4520263075828552,0.9057777523994446,0.001
0.48549023270606995,0.9100000262260437,0.44720354676246643,0.9057777523994446,0.001
0.48207956552505493,0.9039999842643738,0.44274094700813293,0.906000018119812,0.001
0.487908273935318,0.9160000085830688,0.43831562995910645,0.9062222242355347,0.001
0.4815610349178314,0.9079999923706055,0.43425023555755615,0.9062222242355347,0.001
0.4896800220012665,0.8999999761581421,0.4303346574306488,0.9064444303512573,0.001
0.46366503834724426,0.9120000004768372,0.42665398120880127,0.9064444303512573,0.001
0.4763190746307373,0.906000018119812,0.42312464118003845,0.9066666960716248,0.001
0.47143471240997314,0.906000018119812,0.41990768909454346,0.9064444303512573,0.001
0.46592360734939575,0.8980000019073486,0.4168083369731903,0.9066666960716248,0.001
0.45942792296409607,0.906000018119812,0.41390129923820496,0.9068889021873474,0.001
0.4648383855819702,0.9020000100135803,0.4108286201953888,0.9071111083030701,0.001
0.4593871831893921,0.9179999828338623,0.40803006291389465,0.9071111083030701,0.001
0.4632799029350281,0.9139999747276306,0.40530386567115784,0.9071111083030701,0.001
0.4414293169975281,0.9100000262260437,0.40292343497276306,0.9073333144187927,0.001
0.4469541609287262,0.9039999842643738,0.40049970149993896,0.9075555801391602,0.001
0.44835108518600464,0.9139999747276306,0.3982298970222473,0.9075555801391602,0.001
0.45013177394866943,0.906000018119812,0.39606213569641113,0.9079999923706055,0.001
0.4426039159297943,0.906000018119812,0.39388802647590637,0.9079999923706055,0.001
0.43164825439453125,0.9100000262260437,0.39209917187690735,0.9079999923706055,0.001
0.4315488040447235,0.906000018119812,0.3900351822376251,0.9079999923706055,0.001
0.42522698640823364,0.9039999842643738,0.3880936801433563,0.9082221984863281,0.001
0.434977650642395,0.9120000004768372,0.3863731026649475,0.9082221984863281,0.001
0.43460264801979065,0.9079999923706055,0.3846186399459839,0.9082221984863281,0.001
0.4213467240333557,0.9100000262260437,0.38291478157043457,0.9082221984863281,0.001
0.4167383313179016,0.9120000004768372,0.3813549280166626,0.9079999923706055,0.001
0.4049803912639618,0.9179999828338623,0.379794180393219,0.9079999923706055,0.001
0.42331722378730774,0.9139999747276306,0.37824687361717224,0.9084444642066956,0.001
0.41343945264816284,0.9100000262260437,0.37671348452568054,0.9084444642066956,0.001
0.40629589557647705,0.9179999828338623,0.37523818016052246,0.9084444642066956,0.001
0.4185025095939636,0.9139999747276306,0.3739156723022461,0.9086666703224182,0.001
0.39960238337516785,0.9100000262260437,0.3726274371147156,0.9091110825538635,0.001
0.412847101688385,0.9139999747276306,0.3713809549808502,0.9091110825538635,0.001
0.40508219599723816,0.9200000166893005,0.3701936602592468,0.9091110825538635,0.001
0.40888527035713196,0.9020000100135803,0.36882004141807556,0.9097777605056763,0.001
0.409241259098053,0.9179999828338623,0.3676286041736603,0.9100000262260437,0.001
0.3912346363067627,0.9160000085830688,0.3666059374809265,0.9100000262260437,0.001
0.39903607964515686,0.9079999923706055,0.3655403256416321,0.9100000262260437,0.001
0.36947840452194214,0.9240000247955322,0.3644353151321411,0.9100000262260437,0.001
0.40528586506843567,0.9160000085830688,0.3632601797580719,0.9100000262260437,0.001
0.3887014091014862,0.9179999828338623,0.3622167706489563,0.9100000262260437,0.001
0.395386666059494,0.9160000085830688,0.3612370193004608,0.9100000262260437,0.001
0.36790093779563904,0.9240000247955322,0.36033695936203003,0.9102222323417664,0.001
0.3812011182308197,0.9120000004768372,0.3593597710132599,0.9102222323417664,0.001
0.3839583992958069,0.9160000085830688,0.35849758982658386,0.9102222323417664,0.001
0.3885990083217621,0.9160000085830688,0.35759443044662476,0.9102222323417664,0.001
0.40176448225975037,0.9039999842643738,0.356778085231781,0.9102222323417664,0.001
0.3841974139213562,0.9160000085830688,0.3559894859790802,0.910444438457489,0.001
0.3756546378135681,0.9120000004768372,0.3552932143211365,0.9102222323417664,0.001
0.3848300576210022,0.9079999923706055,0.3545580208301544,0.9102222323417664,0.001
0.3709092438220978,0.9120000004768372,0.3537171185016632,0.9106666445732117,0.001
0.3808620274066925,0.9240000247955322,0.3529376983642578,0.9106666445732117,0.001
0.38459789752960205,0.9200000166893005,0.35216024518013,0.9106666445732117,0.001
0.3618100881576538,0.9139999747276306,0.35151201486587524,0.9108889102935791,0.001
0.35682839155197144,0.921999990940094,0.3509419858455658,0.9108889102935791,0.001
0.38204285502433777,0.9120000004768372,0.3501453995704651,0.9113333225250244,0.001
0.356010764837265,0.921999990940094,0.3496037423610687,0.9113333225250244,0.001
0.366556853055954,0.9179999828338623,0.349016010761261,0.9113333225250244,0.001
0.37778544425964355,0.9160000085830688,0.3482897877693176,0.9113333225250244,0.001
0.36025261878967285,0.906000018119812,0.34757545590400696,0.9115555286407471,0.001
0.3657081425189972,0.9200000166893005,0.34693247079849243,0.9117777943611145,0.001
0.3674095869064331,0.9179999828338623,0.3462594747543335,0.9117777943611145,0.001
0.35593220591545105,0.9179999828338623,0.34560030698776245,0.9117777943611145,0.001
0.36012861132621765,0.9240000247955322,0.34497374296188354,0.9117777943611145,0.001
0.36745840311050415,0.921999990940094,0.3442913293838501,0.9117777943611145,0.001
0.35223761200904846,0.9139999747276306,0.3436931371688843,0.9117777943611145,0.001
0.36019304394721985,0.9160000085830688,0.34312355518341064,0.9117777943611145,0.001
0.3434373736381531,0.9240000247955322,0.3425292670726776,0.9117777943611145,0.001
0.3547284007072449,0.9139999747276306,0.3420386016368866,0.9117777943611145,0.001
0.3637416958808899,0.9179999828338623,0.34140363335609436,0.9120000004768372,0.001
0.3487914204597473,0.9240000247955322,0.340921550989151,0.9122222065925598,0.001
0.36985158920288086,0.9020000100135803,0.34038957953453064,0.9124444723129272,0.001
0.39659208059310913,0.9160000085830688,0.3398401439189911,0.9124444723129272,0.001
0.3511318862438202,0.9240000247955322,0.33934733271598816,0.9124444723129272,0.001
0.3545892536640167,0.921999990940094,0.3388696610927582,0.9124444723129272,0.001
0.3682920038700104,0.9160000085830688,0.33840620517730713,0.9124444723129272,0.001
0.35227203369140625,0.9139999747276306,0.33790478110313416,0.9124444723129272,0.001
0.36123934388160706,0.9160000085830688,0.33737197518348694,0.9124444723129272,0.001
0.3489181399345398,0.921999990940094,0.33688926696777344,0.9124444723129272,0.001
0.3577234148979187,0.9200000166893005,0.3363837003707886,0.9124444723129272,0.001
0.3483293652534485,0.9160000085830688,0.3359753489494324,0.9124444723129272,0.001
0.3738861382007599,0.9160000085830688,0.3355424404144287,0.9124444723129272,0.001
0.364382266998291,0.9120000004768372,0.3350192904472351,0.9124444723129272,0.001
0.3336457908153534,0.9240000247955322,0.33462098240852356,0.9126666784286499,0.001
0.3528273105621338,0.9200000166893005,0.334112286567688,0.9126666784286499,0.001
0.34470266103744507,0.9179999828338623,0.3336445689201355,0.9128888845443726,0.001
0.35825181007385254,0.9160000085830688,0.3332189917564392,0.9128888845443726,0.001
0.35287436842918396,0.9139999747276306,0.33275899291038513,0.9128888845443726,0.001
0.349534809589386,0.9139999747276306,0.33228451013565063,0.9128888845443726,0.001
0.3604242503643036,0.9200000166893005,0.33188676834106445,0.9128888845443726,0.001
0.3396059572696686,0.9179999828338623,0.3314144015312195,0.9128888845443726,0.001
0.32878443598747253,0.921999990940094,0.33100491762161255,0.9128888845443726,0.001
0.33843669295310974,0.9179999828338623,0.3304223120212555,0.9128888845443726,0.001
0.3423451781272888,0.9240000247955322,0.33006182312965393,0.9128888845443726,0.001
0.33735230565071106,0.9179999828338623,0.32964107394218445,0.9128888845443726,0.001
0.3412640690803528,0.9179999828338623,0.32925641536712646,0.9128888845443726,0.001
0.34942755103111267,0.9240000247955322,0.32887011766433716,0.9128888845443726,0.001
0.337770938873291,0.9240000247955322,0.3284308910369873,0.9131110906600952,0.001
0.32668381929397583,0.9179999828338623,0.3280252516269684,0.9131110906600952,0.001
0.330085813999176,0.9240000247955322,0.32752805948257446,0.9131110906600952,0.001
0.3378039300441742,0.9200000166893005,0.32713159918785095,0.9131110906600952,0.001
0.33638903498649597,0.921999990940094,0.3267231285572052,0.9131110906600952,0.001
0.3375633656978607,0.9279999732971191,0.32630690932273865,0.9131110906600952,0.001
0.33705663681030273,0.9240000247955322,0.32599133253097534,0.9131110906600952,0.001
0.3413410782814026,0.9179999828338623,0.3256179988384247,0.9131110906600952,0.001
0.3436349630355835,0.9179999828338623,0.3252769708633423,0.9131110906600952,0.001
0.35623377561569214,0.9160000085830688,0.32489028573036194,0.9131110906600952,0.001
0.343624085187912,0.9240000247955322,0.32456839084625244,0.9133333563804626,0.001
0.33791229128837585,0.9300000071525574,0.32421284914016724,0.9135555624961853,0.001
0.33224138617515564,0.9179999828338623,0.32383057475090027,0.9135555624961853,0.001
0.3069213926792145,0.9240000247955322,0.32341691851615906,0.913777768611908,0.001
0.3239559829235077,0.9279999732971191,0.3231312930583954,0.913777768611908,0.001
0.3464025557041168,0.9200000166893005,0.3228088319301605,0.913777768611908,0.001
0.3397066593170166,0.9200000166893005,0.3224109411239624,0.913777768611908,0.001
0.3316887319087982,0.9259999990463257,0.32207784056663513,0.913777768611908,0.001
0.33501869440078735,0.9200000166893005,0.3217370808124542,0.913777768611908,0.001
0.328289270401001,0.9279999732971191,0.321389764547348,0.913777768611908,0.001
0.3393196165561676,0.921999990940094,0.3210400342941284,0.913777768611908,0.001
0.34024545550346375,0.9139999747276306,0.32055407762527466,0.914222240447998,0.001
0.3378409445285797,0.921999990940094,0.3202196955680847,0.9144444465637207,0.001
0.31853723526000977,0.921999990940094,0.31983789801597595,0.9144444465637207,0.001
0.33121439814567566,0.9200000166893005,0.31946155428886414,0.9148889183998108,0.001
0.32639092206954956,0.9259999990463257,0.3191421627998352,0.9148889183998108,0.001
0.3065434694290161,0.9240000247955322,0.3187562823295593,0.9148889183998108,0.001
0.3223784863948822,0.9240000247955322,0.3184843063354492,0.9148889183998108,0.001
0.317486047744751,0.9279999732971191,0.31817224621772766,0.9148889183998108,0.001
0.305684357881546,0.9240000247955322,0.31787213683128357,0.9151111245155334,0.001
0.32238373160362244,0.9200000166893005,0.3175715208053589,0.9151111245155334,0.001
0.32248547673225403,0.9240000247955322,0.31722787022590637,0.9151111245155334,0.001
0.32911911606788635,0.9160000085830688,0.3170187175273895,0.9148889183998108,0.001
0.3237021863460541,0.921999990940094,0.3166797459125519,0.9151111245155334,0.001
0.33384791016578674,0.9160000085830688,0.31631696224212646,0.9151111245155334,0.001
0.3281138837337494,0.921999990940094,0.31598392128944397,0.9151111245155334,0.001
0.31985896825790405,0.9259999990463257,0.31569045782089233,0.9153333306312561,0.001
0.32768380641937256,0.9179999828338623,0.31533604860305786,0.9153333306312561,0.001
0.3293399214744568,0.921999990940094,0.31493547558784485,0.9153333306312561,0.001
0.31271660327911377,0.9240000247955322,0.3146410882472992,0.9153333306312561,0.001
0.33440181612968445,0.921999990940094,0.3143138289451599,0.9153333306312561,0.001
0.3024575412273407,0.921999990940094,0.3139691948890686,0.9153333306312561,0.001
0.31507959961891174,0.9200000166893005,0.313624769449234,0.9153333306312561,0.001
0.3136638104915619,0.921999990940094,0.3134636878967285,0.9153333306312561,0.001
0.2975255250930786,0.921999990940094,0.3132309913635254,0.9155555367469788,0.001
0.3171490430831909,0.9259999990463257,0.31283652782440186,0.9157778024673462,0.001
0.32581427693367004,0.9200000166893005,0.31248223781585693,0.9157778024673462,0.001
0.31468451023101807,0.9259999990463257,0.3121050298213959,0.9157778024673462,0.001
0.3140438497066498,0.9240000247955322,0.3118341863155365,0.9157778024673462,0.001
0.3057766258716583,0.9240000247955322,0.3115169405937195,0.9157778024673462,0.001
0.31823959946632385,0.9160000085830688,0.3111978769302368,0.9157778024673462,0.001
0.31151458621025085,0.9279999732971191,0.3108966052532196,0.9157778024673462,0.001
0.3065085709095001,0.921999990940094,0.31067758798599243,0.9157778024673462,0.001
0.31255456805229187,0.9279999732971191,0.31038373708724976,0.9157778024673462,0.001
0.31262004375457764,0.9240000247955322,0.31006741523742676,0.9160000085830688,0.001
0.33149078488349915,0.9300000071525574,0.3097575604915619,0.9160000085830688,0.001
0.2986659109592438,0.9300000071525574,0.30946555733680725,0.9160000085830688,0.001
0.30331429839134216,0.9259999990463257,0.30926045775413513,0.9160000085830688,0.001
0.31322813034057617,0.9259999990463257,0.30896997451782227,0.9157778024673462,0.001
0.3245065212249756,0.9240000247955322,0.308601051568985,0.9157778024673462,0.001
0.32489922642707825,0.9300000071525574,0.3083556890487671,0.9157778024673462,0.001
0.32277458906173706,0.921999990940094,0.30818119645118713,0.9157778024673462,0.001
0.3238237500190735,0.9200000166893005,0.3078448474407196,0.9157778024673462,0.001
0.3133917450904846,0.9179999828338623,0.3075222373008728,0.9157778024673462,0.001
0.29169440269470215,0.9240000247955322,0.30730193853378296,0.9157778024673462,0.001
0.32036280632019043,0.9259999990463257,0.30699819326400757,0.9157778024673462,0.001
0.3128511309623718,0.921999990940094,0.3067585527896881,0.9157778024673462,0.001
0.30807653069496155,0.9179999828338623,0.3064166009426117,0.9157778024673462,0.001
0.3167816698551178,0.9259999990463257,0.3060746192932129,0.9157778024673462,0.001
0.3131227493286133,0.9279999732971191,0.30578652024269104,0.9157778024673462,0.001
0.30525997281074524,0.9279999732971191,0.30546635389328003,0.9157778024673462,0.001
0.3168022632598877,0.9300000071525574,0.30520573258399963,0.9157778024673462,0.001
0.3114483058452606,0.9259999990463257,0.3048856854438782,0.9157778024673462,0.001
0.3049544394016266,0.9259999990463257,0.30463293194770813,0.9160000085830688,0.001
0.31139469146728516,0.9259999990463257,0.3043063282966614,0.9162222146987915,0.001
0.3078300356864929,0.9279999732971191,0.30395597219467163,0.9162222146987915,0.001
0.29816359281539917,0.9259999990463257,0.303737610578537,0.9162222146987915,0.001
0.2943628430366516,0.9279999732971191,0.3034438490867615,0.9162222146987915,0.001
0.2906927764415741,0.9240000247955322,0.3031724691390991,0.9162222146987915,0.001
0.2977442145347595,0.9279999732971191,0.30287614464759827,0.9162222146987915,0.001
0.3159063458442688,0.921999990940094,0.30255308747291565,0.9162222146987915,0.001
0.2985944449901581,0.9279999732971191,0.3022822141647339,0.9162222146987915,0.001
0.3092261552810669,0.9240000247955322,0.30201175808906555,0.9162222146987915,0.001
0.2958712875843048,0.9279999732971191,0.30168506503105164,0.9162222146987915,0.001
0.2994130551815033,0.9240000247955322,0.3014501929283142,0.9162222146987915,0.001
0.2912648320198059,0.9300000071525574,0.30114778876304626,0.9162222146987915,0.001
0.29809457063674927,0.9300000071525574,0.30100369453430176,0.9162222146987915,0.001
0.29608455300331116,0.9200000166893005,0.3007141053676605,0.9162222146987915,0.001
0.29777687788009644,0.9319999814033508,0.30047371983528137,0.9162222146987915,0.001
0.30367496609687805,0.9259999990463257,0.30017030239105225,0.9162222146987915,0.001
0.3058547079563141,0.9240000247955322,0.29997244477272034,0.9162222146987915,0.001
0.2962074279785156,0.9279999732971191,0.2997229993343353,0.9164444208145142,0.001
0.3054123520851135,0.9279999732971191,0.29946237802505493,0.9164444208145142,0.001
0.29062914848327637,0.9279999732971191,0.2991948425769806,0.9166666865348816,0.001
0.30480876564979553,0.9240000247955322,0.29891660809516907,0.9166666865348816,0.001
0.3030279874801636,0.9259999990463257,0.29870525002479553,0.9168888926506042,0.001
0.29838743805885315,0.921999990940094,0.2984273135662079,0.9168888926506042,0.001
0.2994046211242676,0.9240000247955322,0.2980561852455139,0.9168888926506042,0.001
0.2999595105648041,0.9259999990463257,0.2977888584136963,0.9168888926506042,0.001
0.28230029344558716,0.9300000071525574,0.29751235246658325,0.9168888926506042,0.001
0.292938232421875,0.9279999732971191,0.2972702085971832,0.9168888926506042,0.001
0.3016462028026581,0.921999990940094,0.2970147430896759,0.9168888926506042,0.001
0.3063359260559082,0.9200000166893005,0.29678913950920105,0.9168888926506042,0.001
0.30018797516822815,0.9319999814033508,0.2965700924396515,0.9168888926506042,0.001
0.28022515773773193,0.9259999990463257,0.2963595688343048,0.9171110987663269,0.001
0.28923457860946655,0.9279999732971191,0.2961724102497101,0.9171110987663269,0.001
0.28807783126831055,0.9259999990463257,0.29594549536705017,0.9171110987663269,0.001
0.2913883328437805,0.9319999814033508,0.29577216506004333,0.9173333048820496,0.001
0.30483365058898926,0.9300000071525574,0.29547786712646484,0.9173333048820496,0.001
0.30652374029159546,0.9259999990463257,0.29523324966430664,0.917555570602417,0.001
0.28870436549186707,0.9279999732971191,0.29497551918029785,0.917555570602417,0.001
0.28011924028396606,0.9240000247955322,0.2947848439216614,0.917555570602417,0.001
0.2768298387527466,0.9279999732971191,0.2946036458015442,0.917555570602417,0.001
0.2889215052127838,0.9259999990463257,0.2944270074367523,0.917555570602417,0.001
0.2959144711494446,0.9240000247955322,0.29425323009490967,0.917555570602417,0.001
0.2886373996734619,0.921999990940094,0.29411834478378296,0.917555570602417,0.001
0.2883128523826599,0.9259999990463257,0.2938418388366699,0.917555570602417,0.001
0.29140010476112366,0.9279999732971191,0.29361066222190857,0.917555570602417,0.001
0.29039818048477173,0.9259999990463257,0.29331931471824646,0.917555570602417,0.001
0.28670865297317505,0.9240000247955322,0.29302868247032166,0.917555570602417,0.001
0.2791445553302765,0.9319999814033508,0.292819082736969,0.917555570602417,0.001
0.28943103551864624,0.9200000166893005,0.29259878396987915,0.917555570602417,0.001
0.2813926041126251,0.921999990940094,0.29237717390060425,0.917555570602417,0.001
0.2954361140727997,0.9259999990463257,0.2921201288700104,0.9177777767181396,0.001
0.28832972049713135,0.9240000247955322,0.29183879494667053,0.9177777767181396,0.001
0.2872709631919861,0.9259999990463257,0.2916404902935028,0.9177777767181396,0.001
0.29061099886894226,0.9240000247955322,0.2914031744003296,0.9177777767181396,0.001
0.29052942991256714,0.9300000071525574,0.2911868393421173,0.9177777767181396,0.001
0.2771834433078766,0.9279999732971191,0.2909103333950043,0.9177777767181396,0.001
0.30048930644989014,0.9259999990463257,0.2907073199748993,0.9177777767181396,0.001
0.26450616121292114,0.9359999895095825,0.29049670696258545,0.9177777767181396,0.001
0.2775159478187561,0.9319999814033508,0.29028642177581787,0.9177777767181396,0.001
0.29680031538009644,0.921999990940094,0.2900850772857666,0.9177777767181396,0.001
0.2875916361808777,0.9240000247955322,0.289806991815567,0.9182222485542297,0.001
0.2969971299171448,0.9259999990463257,0.2895568013191223,0.9184444546699524,0.001
0.27208802103996277,0.9319999814033508,0.28935912251472473,0.9184444546699524,0.001
0.2749108076095581,0.9300000071525574,0.2891697883605957,0.918666660785675,0.001
0.2788255512714386,0.9300000071525574,0.2889224588871002,0.918666660785675,0.001
0.27451708912849426,0.9259999990463257,0.28868725895881653,0.9184444546699524,0.001
0.2908245027065277,0.9300000071525574,0.28848007321357727,0.9184444546699524,0.001
0.2904384434223175,0.9279999732971191,0.28831490874290466,0.9184444546699524,0.001
0.2891582250595093,0.9279999732971191,0.2880302369594574,0.9184444546699524,0.001
0.28437522053718567,0.9240000247955322,0.2877558469772339,0.9184444546699524,0.001
0.2817399203777313,0.9300000071525574,0.28746774792671204,0.9184444546699524,0.001
0.28416261076927185,0.9240000247955322,0.28717130422592163,0.9184444546699524,0.001
0.28868719935417175,0.921999990940094,0.2869122624397278,0.9184444546699524,0.001
0.27824875712394714,0.9300000071525574,0.2867535948753357,0.9184444546699524,0.001
0.2853153944015503,0.921999990940094,0.2864644229412079,0.9184444546699524,0.001
0.28492939472198486,0.9300000071525574,0.2862361669540405,0.9184444546699524,0.001
0.28277313709259033,0.9259999990463257,0.2860557436943054,0.9184444546699524,0.001
0.281491756439209,0.9259999990463257,0.2858425974845886,0.9184444546699524,0.001
0.284436970949173,0.9259999990463257,0.28565993905067444,0.9184444546699524,0.001
0.2782473862171173,0.9259999990463257,0.28547489643096924,0.9184444546699524,0.001
0.27320972084999084,0.9279999732971191,0.2853051722049713,0.9184444546699524,0.001
0.2842603623867035,0.9259999990463257,0.2851181626319885,0.9184444546699524,0.001
0.2770531475543976,0.9300000071525574,0.2849988341331482,0.9184444546699524,0.001
0.27034544944763184,0.9279999732971191,0.2848058342933655,0.9184444546699524,0.001
0.2873570919036865,0.9259999990463257,0.28453540802001953,0.9184444546699524,0.001
0.27058446407318115,0.9340000152587891,0.28428101539611816,0.9184444546699524,0.001
0.2961433529853821,0.9259999990463257,0.2840251922607422,0.9184444546699524,0.001
0.27568694949150085,0.9279999732971191,0.28385093808174133,0.9184444546699524,0.001
0.2815399169921875,0.9279999732971191,0.2836790084838867,0.9184444546699524,0.001
0.28091686964035034,0.9240000247955322,0.28346413373947144,0.9184444546699524,0.001
0.2814979553222656,0.9259999990463257,0.28330790996551514,0.9184444546699524,0.001
0.2713441550731659,0.9259999990463257,0.28313514590263367,0.9184444546699524,0.001
0.26964935660362244,0.9319999814033508,0.2828879654407501,0.9184444546699524,0.001
0.2804192304611206,0.9279999732971191,0.28264331817626953,0.9184444546699524,0.001
0.2794821858406067,0.9300000071525574,0.282441645860672,0.918666660785675,0.001
0.2882203161716461,0.9319999814033508,0.2822282910346985,0.918666660785675,0.001
0.27834174036979675,0.921999990940094,0.28196296095848083,0.918666660785675,0.001
0.28000304102897644,0.9300000071525574,0.2817690670490265,0.918666660785675,0.001
0.2822386920452118,0.9300000071525574,0.2816164195537567,0.9188888669013977,0.001
0.26270854473114014,0.9300000071525574,0.2814825177192688,0.9188888669013977,0.001
0.27419912815093994,0.9279999732971191,0.2813364267349243,0.9188888669013977,0.001
0.2696037292480469,0.9300000071525574,0.2811303734779358,0.9188888669013977,0.001
0.2872012257575989,0.9240000247955322,0.2809339761734009,0.9188888669013977,0.001
0.26470744609832764,0.9300000071525574,0.2808037996292114,0.9188888669013977,0.001
0.28079521656036377,0.9259999990463257,0.28057724237442017,0.9188888669013977,0.001
0.2745060324668884,0.9319999814033508,0.28048986196517944,0.9188888669013977,0.001
0.26543158292770386,0.9300000071525574,0.28031137585639954,0.9191111326217651,0.001
0.27012819051742554,0.9319999814033508,0.28012052178382874,0.9191111326217651,0.001
0.25709468126296997,0.9319999814033508,0.27981892228126526,0.9193333387374878,0.001
0.26538267731666565,0.9300000071525574,0.27960139513015747,0.9195555448532104,0.001
0.27319997549057007,0.9300000071525574,0.2794593274593353,0.9195555448532104,0.001
0.2700790464878082,0.9259999990463257,0.27924203872680664,0.9195555448532104,0.001
0.27635976672172546,0.9259999990463257,0.2790972590446472,0.9195555448532104,0.001
0.26655998826026917,0.9259999990463257,0.2788764238357544,0.9195555448532104,0.001
0.27024781703948975,0.9319999814033508,0.27871742844581604,0.9195555448532104,0.001
0.2574232518672943,0.9279999732971191,0.27849555015563965,0.9197777509689331,0.001
0.27110347151756287,0.9340000152587891,0.2783660888671875,0.9197777509689331,0.001
0.2741958796977997,0.9200000166893005,0.27820131182670593,0.9197777509689331,0.001
0.2626293897628784,0.9300000071525574,0.27805033326148987,0.9197777509689331,0.001
0.2826182544231415,0.9240000247955322,0.27794626355171204,0.9197777509689331,0.001
0.2738288342952728,0.9300000071525574,0.2778254449367523,0.9197777509689331,0.001
0.2686038911342621,0.9300000071525574,0.2776173949241638,0.9200000166893005,0.001
0.2859407067298889,0.9240000247955322,0.2774295508861542,0.9200000166893005,0.001
0.28397294878959656,0.9259999990463257,0.27720168232917786,0.9202222228050232,0.001
0.26591956615448,0.9319999814033508,0.2770407795906067,0.9202222228050232,0.001
0.2676130533218384,0.9259999990463257,0.27690207958221436,0.9202222228050232,0.001
0.26449424028396606,0.921999990940094,0.27674350142478943,0.9202222228050232,0.001
0.27604424953460693,0.9240000247955322,0.2764681875705719,0.9202222228050232,0.001
0.27281299233436584,0.9259999990463257,0.27623412013053894,0.9202222228050232,0.001
0.27811357378959656,0.9259999990463257,0.275989830493927,0.9202222228050232,0.001
0.2584887742996216,0.9279999732971191,0.27580931782722473,0.9200000166893005,0.001
0.28442811965942383,0.9300000071525574,0.27564537525177,0.9200000166893005,0.001
0.26964351534843445,0.9300000071525574,0.2754676043987274,0.9200000166893005,0.001
0.2761278450489044,0.9300000071525574,0.2752354145050049,0.9200000166893005,0.001
0.26792028546333313,0.9279999732971191,0.27506792545318604,0.9200000166893005,0.001
0.2802170217037201,0.9300000071525574,0.27487650513648987,0.9202222228050232,0.001
0.258512407541275,0.9259999990463257,0.27474865317344666,0.9202222228050232,0.001
0.2608265280723572,0.9319999814033508,0.27463215589523315,0.9200000166893005,0.001
0.25705352425575256,0.9300000071525574,0.2743893265724182,0.9200000166893005,0.001
0.25364530086517334,0.9319999814033508,0.27413687109947205,0.9200000166893005,0.001
0.2636844515800476,0.9259999990463257,0.27395325899124146,0.9200000166893005,0.001
0.2651796340942383,0.9319999814033508,0.27376076579093933,0.9202222228050232,0.001
0.2706424295902252,0.9279999732971191,0.2735459506511688,0.9202222228050232,0.001
0.26604950428009033,0.9340000152587891,0.2733975946903229,0.9202222228050232,0.001
0.2812686264514923,0.9279999732971191,0.2731482684612274,0.9202222228050232,0.001
0.26283571124076843,0.921999990940094,0.27298685908317566,0.9202222228050232,0.001
0.26384326815605164,0.9319999814033508,0.27291369438171387,0.9202222228050232,0.001
0.26693421602249146,0.9319999814033508,0.2727949619293213,0.9202222228050232,0.001
0.2693375051021576,0.9300000071525574,0.2726384401321411,0.9202222228050232,0.001
0.248724564909935,0.9279999732971191,0.2725014090538025,0.9202222228050232,0.001
0.2648981511592865,0.9340000152587891,0.2723526358604431,0.9202222228050232,0.001
0.2841304540634155,0.9319999814033508,0.2721687853336334,0.9202222228050232,0.001
0.26027920842170715,0.9319999814033508,0.27202659845352173,0.9202222228050232,0.001
0.2693687975406647,0.9300000071525574,0.27187520265579224,0.9202222228050232,0.001
0.27475202083587646,0.9300000071525574,0.2717847228050232,0.9202222228050232,0.001
0.2686313986778259,0.9300000071525574,0.271589457988739,0.9202222228050232,0.001
0.25060608983039856,0.9300000071525574,0.2713160514831543,0.9202222228050232,0.001
0.2654123306274414,0.9300000071525574,0.2710469961166382,0.9202222228050232,0.001
0.2686797082424164,0.9300000071525574,0.270874559879303,0.9202222228050232,0.001
0.25851452350616455,0.9259999990463257,0.2707533538341522,0.9202222228050232,0.001
0.2625451982021332,0.9340000152587891,0.27064862847328186,0.9202222228050232,0.001
0.28036850690841675,0.9319999814033508,0.27042531967163086,0.9204444289207458,0.001
0.268611878156662,0.9300000071525574,0.270211786031723,0.9204444289207458,0.001
0.2542465627193451,0.9279999732971191,0.27002087235450745,0.9204444289207458,0.001
0.2761116027832031,0.9279999732971191,0.26985350251197815,0.9204444289207458,0.001
0.2658328115940094,0.9240000247955322,0.2696855962276459,0.9204444289207458,0.001
0.284601628780365,0.9240000247955322,0.26949962973594666,0.9204444289207458,0.001
0.25536081194877625,0.9300000071525574,0.2693469226360321,0.9204444289207458,0.001
0.26039817929267883,0.9319999814033508,0.2691877782344818,0.9204444289207458,0.001
0.265371710062027,0.9319999814033508,0.26905128359794617,0.9204444289207458,0.001
0.24752917885780334,0.9300000071525574,0.2689092755317688,0.9204444289207458,0.001
0.26766449213027954,0.9279999732971191,0.26868295669555664,0.9204444289207458,0.001
0.2798633277416229,0.9279999732971191,0.26845836639404297,0.9204444289207458,0.001
0.2584710717201233,0.9319999814033508,0.2682611048221588,0.9204444289207458,0.001
0.25872233510017395,0.9340000152587891,0.2681654691696167,0.9204444289207458,0.001
0.27209213376045227,0.9300000071525574,0.26796481013298035,0.9206666946411133,0.001
0.2596372961997986,0.9319999814033508,0.26782849431037903,0.9206666946411133,0.001
0.2551203966140747,0.9279999732971191,0.26771754026412964,0.9206666946411133,0.001
0.25826457142829895,0.9319999814033508,0.26755207777023315,0.9206666946411133,0.001
0.27113425731658936,0.9319999814033508,0.26744723320007324,0.9206666946411133,0.001
0.27037855982780457,0.9319999814033508,0.2672866880893707,0.9206666946411133,0.001
0.25189831852912903,0.9319999814033508,0.2670679986476898,0.9208889007568359,0.001
0.25000351667404175,0.9259999990463257,0.2669159173965454,0.9211111068725586,0.001
0.24734842777252197,0.9279999732971191,0.2667838931083679,0.9211111068725586,0.001
0.24367086589336395,0.9319999814033508,0.26666879653930664,0.9211111068725586,0.001
0.2631838619709015,0.9340000152587891,0.2664606273174286,0.9211111068725586,0.001
0.25636032223701477,0.9279999732971191,0.2663055956363678,0.9211111068725586,0.001
0.2436707764863968,0.9279999732971191,0.26616495847702026,0.9211111068725586,0.001
0.2653152048587799,0.9279999732971191,0.2659997045993805,0.9211111068725586,0.001
0.2570103704929352,0.9340000152587891,0.26583483815193176,0.9211111068725586,0.001
0.24649997055530548,0.9300000071525574,0.2655670642852783,0.9211111068725586,0.001
0.24956297874450684,0.9359999895095825,0.2653651833534241,0.9211111068725586,0.001
0.2533956468105316,0.9319999814033508,0.2651383876800537,0.9211111068725586,0.001
0.25483545660972595,0.9319999814033508,0.2651114761829376,0.9211111068725586,0.001
0.2718733549118042,0.9319999814033508,0.2649267315864563,0.9211111068725586,0.001
0.25729820132255554,0.9319999814033508,0.26476341485977173,0.9211111068725586,0.001
0.24955694377422333,0.9319999814033508,0.2646598815917969,0.9211111068725586,0.001
0.2453850507736206,0.9319999814033508,0.26448583602905273,0.9211111068725586,0.001
0.2518971264362335,0.9279999732971191,0.26437342166900635,0.9211111068725586,0.001
0.25937217473983765,0.9340000152587891,0.26417046785354614,0.9211111068725586,0.001
0.2544679045677185,0.9319999814033508,0.26407116651535034,0.9211111068725586,0.001
0.2595103681087494,0.9300000071525574,0.2638874650001526,0.9213333129882812,0.001
0.25462812185287476,0.9319999814033508,0.26376745104789734,0.9213333129882812,0.001
0.24760782718658447,0.9319999814033508,0.263629287481308,0.9213333129882812,0.001
0.2575739622116089,0.9319999814033508,0.2634825110435486,0.9213333129882812,0.001
0.2572210133075714,0.9300000071525574,0.2632426619529724,0.9213333129882812,0.001
0.23775158822536469,0.9340000152587891,0.26317256689071655,0.9213333129882812,0.001
0.26420485973358154,0.9359999895095825,0.26310208439826965,0.9213333129882812,0.001
0.26120924949645996,0.9279999732971191,0.2630521059036255,0.9213333129882812,0.001
0.25712651014328003,0.9300000071525574,0.26295897364616394,0.9213333129882812,0.001
0.2525230348110199,0.9340000152587891,0.2627689838409424,0.9213333129882812,0.001
0.24597425758838654,0.9279999732971191,0.2626507878303528,0.9213333129882812,0.001
0.25642064213752747,0.9319999814033508,0.262474000453949,0.9213333129882812,0.001
0.2435319423675537,0.9340000152587891,0.2623124420642853,0.9213333129882812,0.001
0.2603803873062134,0.9300000071525574,0.26218512654304504,0.9215555787086487,0.001
0.22648029029369354,0.9300000071525574,0.2620931565761566,0.9215555787086487,0.001
0.2544543147087097,0.9300000071525574,0.2618536949157715,0.9215555787086487,0.001
0.24558912217617035,0.9300000071525574,0.2617574632167816,0.9215555787086487,0.001
0.24653056263923645,0.9279999732971191,0.2615204155445099,0.9215555787086487,0.001
0.2518625557422638,0.9279999732971191,0.26140257716178894,0.9215555787086487,0.001
0.2441127747297287,0.9340000152587891,0.2612793743610382,0.9215555787086487,0.001
0.24221651256084442,0.9340000152587891,0.2611701488494873,0.9215555787086487,0.001
0.26488324999809265,0.9300000071525574,0.2610245645046234,0.9215555787086487,0.001
0.24939091503620148,0.9319999814033508,0.2609100341796875,0.9215555787086487,0.001
0.22406317293643951,0.9340000152587891,0.26080089807510376,0.9215555787086487,0.001
0.2539621591567993,0.9359999895095825,0.2607676684856415,0.9215555787086487,0.001
0.2557893991470337,0.9300000071525574,0.26062527298927307,0.9215555787086487,0.001
0.26563629508018494,0.9300000071525574,0.26049676537513733,0.9215555787086487,0.001
0.2586861252784729,0.9340000152587891,0.26032763719558716,0.9215555787086487,0.001
0.24999962747097015,0.9340000152587891,0.2601909339427948,0.9213333129882812,0.001
0.2393888235092163,0.9319999814033508,0.26001960039138794,0.9213333129882812,0.001
0.25240984559059143,0.9380000233650208,0.2598761022090912,0.9215555787086487,0.001
0.2391914427280426,0.9319999814033508,0.25989648699760437,0.9215555787086487,0.001
0.247498020529747,0.9259999990463257,0.25974735617637634,0.9215555787086487,0.001
0.25046589970588684,0.9340000152587891,0.25959375500679016,0.9215555787086487,0.001
0.24116380512714386,0.9300000071525574,0.2594216465950012,0.9215555787086487,0.001
0.24886640906333923,0.9259999990463257,0.25924596190452576,0.9215555787086487,0.001
0.24774596095085144,0.9340000152587891,0.25912657380104065,0.9215555787086487,0.001
0.24095933139324188,0.9319999814033508,0.2589569091796875,0.9215555787086487,0.001
0.2419106364250183,0.9340000152587891,0.2588910758495331,0.9215555787086487,0.001
0.24764519929885864,0.9279999732971191,0.25873368978500366,0.9215555787086487,0.001
0.2510213851928711,0.9319999814033508,0.2585890293121338,0.9215555787086487,0.001
0.25473731756210327,0.9319999814033508,0.25841501355171204,0.9215555787086487,0.001
0.24601782858371735,0.9340000152587891,0.2583616077899933,0.9215555787086487,0.001
0.26133978366851807,0.9340000152587891,0.2581741213798523,0.9215555787086487,0.001
0.2467326670885086,0.9319999814033508,0.25813356041908264,0.9215555787086487,0.001
0.2370162457227707,0.9340000152587891,0.2580706477165222,0.9215555787086487,0.001
0.23294402658939362,0.9319999814033508,0.25790801644325256,0.9215555787086487,0.001
0.2557796239852905,0.9319999814033508,0.25783395767211914,0.9215555787086487,0.001
0.24573589861392975,0.9319999814033508,0.2576886713504791,0.9215555787086487,0.001
0.2520802617073059,0.9359999895095825,0.2576126754283905,0.9215555787086487,0.001
0.25318607687950134,0.9319999814033508,0.25747784972190857,0.9217777848243713,0.001
0.24350447952747345,0.9340000152587891,0.2573142349720001,0.921999990940094,0.001
0.25859472155570984,0.9340000152587891,0.25713708996772766,0.921999990940094,0.001
0.2577480673789978,0.9319999814033508,0.25706517696380615,0.921999990940094,0.001
0.24310941994190216,0.9240000247955322,0.2569708824157715,0.921999990940094,0.001
0.23047710955142975,0.9300000071525574,0.25686007738113403,0.921999990940094,0.001
0.23638403415679932,0.9300000071525574,0.2567232847213745,0.921999990940094,0.001
0.240764319896698,0.9319999814033508,0.25660088658332825,0.921999990940094,0.001
0.24977868795394897,0.9319999814033508,0.25645801424980164,0.921999990940094,0.001
0.24491772055625916,0.9340000152587891,0.2563116252422333,0.921999990940094,0.001
0.24810898303985596,0.9319999814033508,0.25620266795158386,0.921999990940094,0.001
0.2471660077571869,0.9240000247955322,0.2560406029224396,0.921999990940094,0.001
0.22062577307224274,0.9319999814033508,0.2559375464916229,0.921999990940094,0.001
0.24544686079025269,0.9300000071525574,0.25577569007873535,0.9222221970558167,0.001
0.25682634115219116,0.9380000233650208,0.2556789815425873,0.921999990940094,0.001
0.25391191244125366,0.9300000071525574,0.25557732582092285,0.921999990940094,0.001
0.23595507442951202,0.9300000071525574,0.25543197989463806,0.921999990940094,0.001
0.2511565387248993,0.9340000152587891,0.25530582666397095,0.921999990940094,0.001
0.23117695748806,0.9259999990463257,0.2551928758621216,0.921999990940094,0.001
0.2356993407011032,0.9340000152587891,0.25515425205230713,0.921999990940094,0.001
0.24400046467781067,0.9340000152587891,0.25505363941192627,0.921999990940094,0.001
0.25036588311195374,0.9319999814033508,0.254923015832901,0.921999990940094,0.001
0.23870335519313812,0.9340000152587891,0.25473812222480774,0.921999990940094,0.001
0.23875893652439117,0.9319999814033508,0.25469911098480225,0.921999990940094,0.001
0.23874007165431976,0.9340000152587891,0.2545851469039917,0.921999990940094,0.001
0.2513362467288971,0.9340000152587891,0.25435227155685425,0.9222221970558167,0.001
0.2231750786304474,0.9340000152587891,0.25421300530433655,0.9224444627761841,0.001
0.2284444272518158,0.9319999814033508,0.2541387677192688,0.9226666688919067,0.001
0.23958642780780792,0.9319999814033508,0.25399982929229736,0.9226666688919067,0.001
0.23565515875816345,0.9380000233650208,0.2539081871509552,0.9226666688919067,0.001
0.2466660588979721,0.9319999814033508,0.253777414560318,0.9226666688919067,0.001
0.2232212871313095,0.9319999814033508,0.2536126673221588,0.9228888750076294,0.001
0.2503087818622589,0.9300000071525574,0.25350436568260193,0.9228888750076294,0.001
0.23137561976909637,0.9359999895095825,0.2533879280090332,0.9228888750076294,0.001
0.24919649958610535,0.9279999732971191,0.25325819849967957,0.9228888750076294,0.001
0.23060303926467896,0.9319999814033508,0.2531464695930481,0.9228888750076294,0.001
0.24405062198638916,0.9319999814033508,0.25300851464271545,0.9231111407279968,0.001
0.24320565164089203,0.9319999814033508,0.25288188457489014,0.9231111407279968,0.001
0.24873031675815582,0.9319999814033508,0.2527499794960022,0.9231111407279968,0.001
0.23563183844089508,0.9319999814033508,0.2526378035545349,0.9231111407279968,0.001
0.20881885290145874,0.9340000152587891,0.2525748908519745,0.9231111407279968,0.001
0.242667093873024,0.9300000071525574,0.2525097727775574,0.9231111407279968,0.001
0.23004485666751862,0.9319999814033508,0.25244787335395813,0.9231111407279968,0.001
0.23513111472129822,0.9340000152587891,0.2523624002933502,0.9231111407279968,0.001
0.23666299879550934,0.9300000071525574,0.25225281715393066,0.9233333468437195,0.001
0.2385556697845459,0.9319999814033508,0.2520905137062073,0.9233333468437195,0.001
0.22905535995960236,0.9340000152587891,0.2519878149032593,0.9233333468437195,0.001
0.21782296895980835,0.9380000233650208,0.25200724601745605,0.9233333468437195,0.001
0.23456984758377075,0.9319999814033508,0.25195425748825073,0.9233333468437195,0.001
0.24308845400810242,0.9279999732971191,0.25184696912765503,0.9233333468437195,0.001
0.2348586618900299,0.9340000152587891,0.2517244815826416,0.9233333468437195,0.001
0.2409604787826538,0.9359999895095825,0.25160688161849976,0.9233333468437195,0.001
0.23930183053016663,0.9340000152587891,0.25149914622306824,0.9233333468437195,0.001
0.23716673254966736,0.9359999895095825,0.25135138630867004,0.9233333468437195,0.001
0.2384374439716339,0.9319999814033508,0.2512250244617462,0.9233333468437195,0.001
0.25025269389152527,0.9340000152587891,0.2510802447795868,0.9233333468437195,0.001
0.2390935868024826,0.9380000233650208,0.25101473927497864,0.9233333468437195,0.001
0.2532714307308197,0.9319999814033508,0.2509201467037201,0.9233333468437195,0.001
0.23350465297698975,0.9340000152587891,0.25075191259384155,0.9235555529594421,0.001
0.23359400033950806,0.9340000152587891,0.25066789984703064,0.9235555529594421,0.001
0.24809210002422333,0.9319999814033508,0.2505432367324829,0.9235555529594421,0.001
0.2297360897064209,0.9359999895095825,0.2504155933856964,0.9235555529594421,0.001
0.22726011276245117,0.9380000233650208,0.2503916919231415,0.9235555529594421,0.001
0.2328379601240158,0.9359999895095825,0.25026407837867737,0.9235555529594421,0.001
0.2360713928937912,0.9380000233650208,0.25012266635894775,0.9235555529594421,0.001
0.24226829409599304,0.9340000152587891,0.2500912547111511,0.9237777590751648,0.001
0.23437486588954926,0.9319999814033508,0.25001412630081177,0.9240000247955322,0.001
0.23180091381072998,0.9340000152587891,0.24995480477809906,0.9242222309112549,0.001
0.22460420429706573,0.9340000152587891,0.24984502792358398,0.9244444370269775,0.001
0.24095813930034637,0.9300000071525574,0.24974501132965088,0.9244444370269775,0.001
0.2407958060503006,0.9359999895095825,0.24961715936660767,0.9244444370269775,0.001
0.22511537373065948,0.9380000233650208,0.24954266846179962,0.9244444370269775,0.001
0.21885615587234497,0.9340000152587891,0.24943619966506958,0.9244444370269775,0.001
0.24555984139442444,0.9359999895095825,0.24929481744766235,0.9244444370269775,0.001
0.23163604736328125,0.9359999895095825,0.24916693568229675,0.9244444370269775,0.001
0.24949684739112854,0.9359999895095825,0.24912597239017487,0.9244444370269775,0.001
0.2299606204032898,0.9279999732971191,0.24898239970207214,0.9244444370269775,0.001
0.22664009034633636,0.9319999814033508,0.24891971051692963,0.9244444370269775,0.001
0.24770855903625488,0.9319999814033508,0.24882981181144714,0.9244444370269775,0.001
0.23047135770320892,0.9359999895095825,0.24871373176574707,0.9246666431427002,0.001
0.2382872998714447,0.9300000071525574,0.24857394397258759,0.9246666431427002,0.001
0.22403256595134735,0.9319999814033508,0.24847528338432312,0.9246666431427002,0.001
0.23693767189979553,0.9359999895095825,0.24840015172958374,0.9248889088630676,0.001
0.2298242747783661,0.9340000152587891,0.2483164668083191,0.9248889088630676,0.001
0.23721124231815338,0.9319999814033508,0.2482071965932846,0.9248889088630676,0.001
0.24790631234645844,0.9319999814033508,0.2479473501443863,0.9248889088630676,0.001
0.23797334730625153,0.9340000152587891,0.247823104262352,0.9248889088630676,0.001
0.2343694269657135,0.9279999732971191,0.24775168299674988,0.9248889088630676,0.001
0.23363636434078217,0.9380000233650208,0.2476537525653839,0.9248889088630676,0.001
0.2406948357820511,0.9319999814033508,0.2474961280822754,0.9251111149787903,0.001
0.2265990823507309,0.9340000152587891,0.24741417169570923,0.9251111149787903,0.001
0.23570390045642853,0.9279999732971191,0.24730287492275238,0.9251111149787903,0.001
0.22104449570178986,0.9300000071525574,0.24717529118061066,0.9253333210945129,0.001
0.22367613017559052,0.9419999718666077,0.24707385897636414,0.9255555272102356,0.001
0.24117381870746613,0.9340000152587891,0.24694067239761353,0.9255555272102356,0.001
0.23778489232063293,0.9359999895095825,0.24685856699943542,0.925777792930603,0.001
0.23374657332897186,0.9340000152587891,0.24678607285022736,0.925777792930603,0.001
0.22070297598838806,0.9340000152587891,0.2467179149389267,0.925777792930603,0.001
0.22625748813152313,0.9279999732971191,0.2466440498828888,0.925777792930603,0.001
0.21697822213172913,0.9399999976158142,0.24662546813488007,0.925777792930603,0.001
0.22311176359653473,0.9359999895095825,0.24649828672409058,0.925777792930603,0.001
0.23113654553890228,0.9359999895095825,0.24640041589736938,0.925777792930603,0.001
0.22481794655323029,0.9359999895095825,0.24633781611919403,0.9259999990463257,0.001
0.2316967099905014,0.9340000152587891,0.24624034762382507,0.925777792930603,0.001
0.24817413091659546,0.9340000152587891,0.24614252150058746,0.9262222051620483,0.001
0.23413029313087463,0.9340000152587891,0.24605222046375275,0.9264444708824158,0.001
0.2314251810312271,0.9359999895095825,0.2460532784461975,0.9264444708824158,0.001
0.215868279337883,0.9359999895095825,0.24602451920509338,0.9264444708824158,0.001
0.23062554001808167,0.9340000152587891,0.2459675818681717,0.9264444708824158,0.001
0.24631492793560028,0.9319999814033508,0.24581263959407806,0.9264444708824158,0.001
0.23156419396400452,0.9319999814033508,0.24578963220119476,0.9264444708824158,0.001
0.23404939472675323,0.9340000152587891,0.24568472802639008,0.9264444708824158,0.001
0.23307815194129944,0.9359999895095825,0.24555253982543945,0.9264444708824158,0.001
0.22866305708885193,0.9380000233650208,0.24551616609096527,0.9264444708824158,0.001
0.2340274304151535,0.9300000071525574,0.2453993856906891,0.9264444708824158,0.001
0.23107117414474487,0.9340000152587891,0.2453167587518692,0.9264444708824158,0.001
0.22956734895706177,0.9340000152587891,0.24516813457012177,0.9266666769981384,0.001
0.2432280331850052,0.9399999976158142,0.24507568776607513,0.9268888831138611,0.001
0.231993168592453,0.9380000233650208,0.24507255852222443,0.9268888831138611,0.001
0.21594636142253876,0.9359999895095825,0.24498391151428223,0.9268888831138611,0.001
0.236341193318367,0.9340000152587891,0.2448555827140808,0.9268888831138611,0.001
0.22753405570983887,0.9340000152587891,0.24475862085819244,0.9268888831138611,0.001
0.23555819690227509,0.9319999814033508,0.24462923407554626,0.9268888831138611,0.001
0.22991229593753815,0.9399999976158142,0.24453534185886383,0.9268888831138611,0.001
0.24315620958805084,0.9340000152587891,0.24446193873882294,0.9268888831138611,0.001
0.23546408116817474,0.9359999895095825,0.24433724582195282,0.9268888831138611,0.001
0.24691537022590637,0.9359999895095825,0.2442779392004013,0.9268888831138611,0.001
0.21601039171218872,0.9380000233650208,0.2441658228635788,0.9268888831138611,0.001
0.22759795188903809,0.9359999895095825,0.2440427541732788,0.9268888831138611,0.001
0.23144467175006866,0.9300000071525574,0.24397678673267365,0.9273333549499512,0.001
0.2268732637166977,0.9380000233650208,0.24389854073524475,0.9273333549499512,0.001
0.21563249826431274,0.9340000152587891,0.2438356876373291,0.9273333549499512,0.001
0.2188110053539276,0.9359999895095825,0.24380004405975342,0.9273333549499512,0.001
0.2266383171081543,0.9340000152587891,0.2436450719833374,0.9275555610656738,0.001
0.22291125357151031,0.9359999895095825,0.24350355565547943,0.9275555610656738,0.001
0.22203443944454193,0.9380000233650208,0.2434450089931488,0.9275555610656738,0.001
0.23557887971401215,0.9419999718666077,0.24335725605487823,0.9275555610656738,0.001
0.2296924591064453,0.9340000152587891,0.24326853454113007,0.9275555610656738,0.001
0.22742879390716553,0.9340000152587891,0.2431713342666626,0.9275555610656738,0.001
0.23642811179161072,0.9380000233650208,0.24307698011398315,0.9275555610656738,0.001
0.22642026841640472,0.9319999814033508,0.24294960498809814,0.9275555610656738,0.001
0.20986028015613556,0.9399999976158142,0.24290898442268372,0.9275555610656738,0.001
0.21993781626224518,0.9359999895095825,0.2428944706916809,0.9275555610656738,0.001
0.22800840437412262,0.9359999895095825,0.24282367527484894,0.9275555610656738,0.001
0.23271022737026215,0.9340000152587891,0.24275876581668854,0.9275555610656738,0.001
0.2189861387014389,0.9419999718666077,0.24264129996299744,0.9277777671813965,0.001
0.2351119965314865,0.9359999895095825,0.2426668256521225,0.9277777671813965,0.001
0.22720712423324585,0.9340000152587891,0.2426021546125412,0.9277777671813965,0.001
0.24930523335933685,0.9340000152587891,0.24243107438087463,0.9277777671813965,0.001
0.2214108556509018,0.9399999976158142,0.24232064187526703,0.9277777671813965,0.001
0.22098973393440247,0.9380000233650208,0.24220119416713715,0.9277777671813965,0.001
0.2260596603155136,0.9340000152587891,0.24212977290153503,0.9277777671813965,0.001
0.2378106415271759,0.9359999895095825,0.24205265939235687,0.9279999732971191,0.001
0.23456257581710815,0.9380000233650208,0.24196971952915192,0.9279999732971191,0.001
0.23442833125591278,0.9380000233650208,0.24183015525341034,0.9282222390174866,0.001
0.22445696592330933,0.9380000233650208,0.24181580543518066,0.9282222390174866,0.001
0.22084154188632965,0.9399999976158142,0.24176861345767975,0.9282222390174866,0.001
0.2219650149345398,0.9399999976158142,0.24170486629009247,0.9282222390174866,0.001
0.22446373105049133,0.9399999976158142,0.24166983366012573,0.9284444451332092,0.001
0.22186830639839172,0.9340000152587891,0.2415832281112671,0.9286666512489319,0.001
0.23017732799053192,0.9319999814033508,0.24158534407615662,0.9286666512489319,0.001
0.23290976881980896,0.9399999976158142,0.2415308654308319,0.9286666512489319,0.001
0.23334451019763947,0.9300000071525574,0.24145862460136414,0.9286666512489319,0.001
0.2422487437725067,0.9340000152587891,0.2413288801908493,0.9286666512489319,0.001
0.22804352641105652,0.9380000233650208,0.241263747215271,0.9286666512489319,0.001
0.2284119576215744,0.9419999718666077,0.24117469787597656,0.9286666512489319,0.001
0.2266613394021988,0.9399999976158142,0.24112649261951447,0.9286666512489319,0.001
0.22843731939792633,0.9380000233650208,0.24112464487552643,0.9288889169692993,0.001
0.22937294840812683,0.9319999814033508,0.24103471636772156,0.929111123085022,0.001
0.22071793675422668,0.9399999976158142,0.24095526337623596,0.929111123085022,0.001
0.22172273695468903,0.9399999976158142,0.24090752005577087,0.929111123085022,0.001
0.21250680088996887,0.9399999976158142,0.2408561259508133,0.929111123085022,0.001
0.22817562520503998,0.9380000233650208,0.2408256083726883,0.929111123085022,0.001
0.21760870516300201,0.9359999895095825,0.24076887965202332,0.9295555353164673,0.001
0.23766468465328217,0.9319999814033508,0.24061860144138336,0.9295555353164673,0.001
0.2213892638683319,0.9359999895095825,0.2405393272638321,0.9295555353164673,0.001
0.21434636414051056,0.9359999895095825,0.24047045409679413,0.9295555353164673,0.001
0.21075688302516937,0.9359999895095825,0.24043728411197662,0.9295555353164673,0.001
0.2195093035697937,0.9380000233650208,0.24045084416866302,0.9295555353164673,0.001
0.20357780158519745,0.9359999895095825,0.24037578701972961,0.9295555353164673,0.001
0.21365512907505035,0.9380000233650208,0.2403840869665146,0.9295555353164673,0.001
0.22262893617153168,0.9380000233650208,0.2404027283191681,0.9295555353164673,0.001
0.22971683740615845,0.9359999895095825,0.24036835134029388,0.9295555353164673,0.001
0.23406372964382172,0.9399999976158142,0.24028906226158142,0.9295555353164673,0.001
0.22882962226867676,0.9399999976158142,0.2402406483888626,0.9295555353164673,0.001
0.216602623462677,0.9359999895095825,0.24012526869773865,0.9295555353164673,0.001
0.22404558956623077,0.9399999976158142,0.2401580959558487,0.9295555353164673,0.001
0.23266425728797913,0.9380000233650208,0.24002178013324738,0.9297778010368347,0.001
0.22162538766860962,0.9380000233650208,0.24000480771064758,0.9297778010368347,0.001
0.21473968029022217,0.9419999718666077,0.2400193214416504,0.9297778010368347,0.001
0.2212236076593399,0.9380000233650208,0.23990625143051147,0.9297778010368347,0.001
0.22163112461566925,0.9380000233650208,0.23978930711746216,0.9300000071525574,0.001
0.22245702147483826,0.9380000233650208,0.23977400362491608,0.9300000071525574,0.001
0.21892991662025452,0.9399999976158142,0.239703968167305,0.9300000071525574,0.001
0.22058893740177155,0.9359999895095825,0.23964449763298035,0.9300000071525574,0.001
0.22691744565963745,0.9380000233650208,0.23962505161762238,0.93022221326828,0.001
0.21949127316474915,0.9399999976158142,0.23956754803657532,0.93022221326828,0.001
0.2363477349281311,0.9380000233650208,0.23942135274410248,0.93022221326828,0.001
0.21497151255607605,0.9399999976158142,0.23938071727752686,0.93022221326828,0.001
0.23937778174877167,0.9340000152587891,0.23933599889278412,0.93022221326828,0.001
0.2125408798456192,0.9359999895095825,0.23935015499591827,0.9304444193840027,0.001
0.21875989437103271,0.9419999718666077,0.23933438956737518,0.9304444193840027,0.001
0.20957286655902863,0.9419999718666077,0.23928068578243256,0.9304444193840027,0.001
0.2165137082338333,0.9380000233650208,0.2391599416732788,0.9304444193840027,0.001
0.210859015583992,0.9319999814033508,0.2391468584537506,0.9304444193840027,0.001
0.2313445806503296,0.9399999976158142,0.23906822502613068,0.9304444193840027,0.001
0.219559907913208,0.9380000233650208,0.23901161551475525,0.9304444193840027,0.001
0.21336089074611664,0.9359999895095825,0.23892870545387268,0.9308888912200928,0.001
0.21361885964870453,0.9340000152587891,0.23885318636894226,0.9308888912200928,0.001
0.23523668944835663,0.9340000152587891,0.2387542575597763,0.9308888912200928,0.001
0.2099379450082779,0.9399999976158142,0.2386900782585144,0.9308888912200928,0.001
0.22348764538764954,0.9340000152587891,0.23864024877548218,0.9308888912200928,0.001
0.2154221534729004,0.9359999895095825,0.23857912421226501,0.9308888912200928,0.001
0.222391739487648,0.9399999976158142,0.23852688074111938,0.9308888912200928,0.001
0.21681654453277588,0.9419999718666077,0.23847843706607819,0.9308888912200928,0.001
0.20551888644695282,0.9440000057220459,0.23836851119995117,0.9308888912200928,0.001
0.2276364117860794,0.9380000233650208,0.2383618950843811,0.9308888912200928,0.001
0.2263818085193634,0.9340000152587891,0.23828217387199402,0.9308888912200928,0.001
0.21707476675510406,0.9380000233650208,0.2382420003414154,0.9308888912200928,0.001
0.23421546816825867,0.9359999895095825,0.23810975253582,0.9308888912200928,0.001
0.22235572338104248,0.9399999976158142,0.23800398409366608,0.9308888912200928,0.001
0.2298315465450287,0.9340000152587891,0.23789909482002258,0.9311110973358154,0.001
0.21608108282089233,0.9340000152587891,0.23781117796897888,0.9311110973358154,0.001
0.21645943820476532,0.9319999814033508,0.23778562247753143,0.9308888912200928,0.001
0.2112073004245758,0.9440000057220459,0.23781993985176086,0.9308888912200928,0.001
0.21647809445858002,0.9380000233650208,0.2377217561006546,0.9308888912200928,0.001
0.22112946212291718,0.9340000152587891,0.23761919140815735,0.9308888912200928,0.001
0.22115567326545715,0.9380000233650208,0.23752270638942719,0.9308888912200928,0.001
0.2238977998495102,0.9359999895095825,0.23756539821624756,0.9308888912200928,0.001
0.22079236805438995,0.9359999895095825,0.23746126890182495,0.9308888912200928,0.001
0.23055484890937805,0.9359999895095825,0.23743538558483124,0.9308888912200928,0.001
0.2292526215314865,0.9380000233650208,0.2372874915599823,0.9308888912200928,0.001
0.23632946610450745,0.9300000071525574,0.23735375702381134,0.9308888912200928,0.001
0.22356882691383362,0.9340000152587891,0.23714865744113922,0.9311110973358154,0.001
0.20743800699710846,0.9380000233650208,0.23704728484153748,0.9313333630561829,0.001
0.21853603422641754,0.9380000233650208,0.2368457317352295,0.9313333630561829,0.001
0.21074944734573364,0.9359999895095825,0.23681163787841797,0.9313333630561829,0.001
0.2078869342803955,0.9399999976158142,0.23680046200752258,0.9313333630561829,0.001
0.20700155198574066,0.9440000057220459,0.23677557706832886,0.9313333630561829,0.001
0.22258001565933228,0.9340000152587891,0.2367078959941864,0.9313333630561829,0.001
0.21469828486442566,0.9340000152587891,0.23663948476314545,0.9313333630561829,0.001
0.21391192078590393,0.9419999718666077,0.23655682802200317,0.9313333630561829,0.001
0.21648851037025452,0.9359999895095825,0.23652563989162445,0.9313333630561829,0.001
0.21856987476348877,0.9399999976158142,0.23635384440422058,0.9317777752876282,0.001
0.2181415557861328,0.9459999799728394,0.23635177314281464,0.9317777752876282,0.001
0.21590466797351837,0.9399999976158142,0.2362975776195526,0.9317777752876282,0.001
0.22069022059440613,0.9319999814033508,0.23615142703056335,0.9317777752876282,0.001
0.21488209068775177,0.9380000233650208,0.23609323799610138,0.9317777752876282,0.001
0.2208494395017624,0.9380000233650208,0.23604559898376465,0.9317777752876282,0.001
0.22217892110347748,0.9440000057220459,0.2360546886920929,0.9317777752876282,0.001
0.2132958471775055,0.9419999718666077,0.23601773381233215,0.9317777752876282,0.001
0.22209715843200684,0.9399999976158142,0.23595070838928223,0.9317777752876282,0.001
0.2243397980928421,0.9399999976158142,0.2358960211277008,0.9317777752876282,0.001
0.22655048966407776,0.9419999718666077,0.23586130142211914,0.9317777752876282,0.001
0.20648881793022156,0.9419999718666077,0.23584583401679993,0.9317777752876282,0.001
0.21607914566993713,0.9459999799728394,0.23580126464366913,0.9317777752876282,0.001
0.23451031744480133,0.9380000233650208,0.23575268685817719,0.9317777752876282,0.001
0.20380939543247223,0.9399999976158142,0.23568817973136902,0.9317777752876282,0.001
0.2074749767780304,0.9399999976158142,0.23568031191825867,0.9317777752876282,0.001
0.21690866351127625,0.9300000071525574,0.23564697802066803,0.9319999814033508,0.001
0.20757001638412476,0.9440000057220459,0.23559732735157013,0.9319999814033508,0.001
0.22767655551433563,0.9340000152587891,0.2355034202337265,0.9322222471237183,0.001
0.22231285274028778,0.9399999976158142,0.2354314774274826,0.9322222471237183,0.001
0.21700477600097656,0.9399999976158142,0.23538324236869812,0.9322222471237183,0.001
0.2261945605278015,0.9319999814033508,0.23532912135124207,0.9322222471237183,0.001
0.2028294950723648,0.9300000071525574,0.23530088365077972,0.9322222471237183,0.001
0.2194223254919052,0.9380000233650208,0.23521782457828522,0.9322222471237183,0.001
0.22600364685058594,0.9380000233650208,0.23511916399002075,0.9322222471237183,0.001
0.21929611265659332,0.9459999799728394,0.2351442575454712,0.9322222471237183,0.001
0.22442159056663513,0.9359999895095825,0.23515403270721436,0.9322222471237183,0.001
0.19609691202640533,0.9399999976158142,0.23506130278110504,0.9322222471237183,0.001
0.22539791464805603,0.9380000233650208,0.23497365415096283,0.9322222471237183,0.001
0.23163458704948425,0.9380000233650208,0.23489594459533691,0.9322222471237183,0.001
0.22302629053592682,0.9319999814033508,0.2348547875881195,0.9324444532394409,0.001
0.21369709074497223,0.9399999976158142,0.23480552434921265,0.9324444532394409,0.001
0.1981482356786728,0.9480000138282776,0.23475784063339233,0.9324444532394409,0.001
0.2073860764503479,0.9419999718666077,0.2346719354391098,0.9326666593551636,0.001
0.21858996152877808,0.9380000233650208,0.23454421758651733,0.9326666593551636,0.001
0.2137344479560852,0.9399999976158142,0.23453204333782196,0.9326666593551636,0.001
0.2211105227470398,0.9380000233650208,0.23447322845458984,0.9326666593551636,0.001
0.19822587072849274,0.9359999895095825,0.2343524545431137,0.9326666593551636,0.001
0.23068322241306305,0.9359999895095825,0.23432008922100067,0.9326666593551636,0.001
0.21317821741104126,0.9380000233650208,0.23431198298931122,0.9326666593551636,0.001
0.2120174914598465,0.9419999718666077,0.2343045175075531,0.9326666593551636,0.001
0.20956437289714813,0.9440000057220459,0.23424769937992096,0.9326666593551636,0.001
0.2205474078655243,0.9340000152587891,0.2341747283935547,0.9328888654708862,0.001
0.2186037003993988,0.9440000057220459,0.23410069942474365,0.9328888654708862,0.001
0.21882155537605286,0.9419999718666077,0.23400357365608215,0.9328888654708862,0.001
0.2070780247449875,0.9380000233650208,0.23396188020706177,0.9328888654708862,0.001
0.20630769431591034,0.9440000057220459,0.23393207788467407,0.9328888654708862,0.001
0.2072395384311676,0.9380000233650208,0.23388420045375824,0.9328888654708862,0.001
0.21172164380550385,0.9419999718666077,0.23385074734687805,0.9328888654708862,0.001
0.22084598243236542,0.9359999895095825,0.23382753133773804,0.9328888654708862,0.001
0.22172486782073975,0.9399999976158142,0.23378664255142212,0.9331111311912537,0.001
0.2027844935655594,0.9419999718666077,0.23367629945278168,0.9333333373069763,0.001
0.20005689561367035,0.9399999976158142,0.23367927968502045,0.9333333373069763,0.001
0.19864748418331146,0.9419999718666077,0.23369808495044708,0.9333333373069763,0.001
0.20641319453716278,0.9359999895095825,0.23363514244556427,0.933555543422699,0.001
0.21746477484703064,0.9359999895095825,0.23351891338825226,0.933555543422699,0.001
0.21925953030586243,0.9359999895095825,0.2334679365158081,0.9337777495384216,0.001
0.21974331140518188,0.9399999976158142,0.23341728746891022,0.9337777495384216,0.001
0.19841447472572327,0.9459999799728394,0.2334718108177185,0.9337777495384216,0.001
0.2246437817811966,0.9399999976158142,0.23340624570846558,0.9337777495384216,0.001
0.19976510107517242,0.9359999895095825,0.23337917029857635,0.9337777495384216,0.001
0.21298372745513916,0.9340000152587891,0.23339301347732544,0.9337777495384216,0.001
0.21562644839286804,0.9399999976158142,0.23337624967098236,0.9337777495384216,0.001
0.21922610700130463,0.9359999895095825,0.23334196209907532,0.9337777495384216,0.001
0.19656188786029816,0.9419999718666077,0.2333010733127594,0.9337777495384216,0.001
0.21847832202911377,0.9419999718666077,0.23322762548923492,0.9337777495384216,0.001
0.2045966237783432,0.9440000057220459,0.2331409454345703,0.9337777495384216,0.001
0.20433539152145386,0.9399999976158142,0.23303648829460144,0.9337777495384216,0.001
0.21469461917877197,0.9440000057220459,0.2329399138689041,0.9337777495384216,0.001
0.2099590003490448,0.9459999799728394,0.23290790617465973,0.9337777495384216,0.001
0.21780124306678772,0.9380000233650208,0.23278279602527618,0.9337777495384216,0.001
0.22275637090206146,0.9340000152587891,0.23266154527664185,0.9337777495384216,0.001
0.21464306116104126,0.9359999895095825,0.2325630635023117,0.9340000152587891,0.001
0.22633585333824158,0.9399999976158142,0.23240630328655243,0.9340000152587891,0.001
0.20696595311164856,0.9399999976158142,0.2323300987482071,0.9340000152587891,0.001
0.21034976840019226,0.9380000233650208,0.23227699100971222,0.9340000152587891,0.001
0.20304766297340393,0.9399999976158142,0.23220743238925934,0.9340000152587891,0.001
0.2223130315542221,0.9380000233650208,0.23220591247081757,0.9342222213745117,0.001
0.19145354628562927,0.9440000057220459,0.23214800655841827,0.9342222213745117,0.001
0.1926712989807129,0.9419999718666077,0.2321297973394394,0.9342222213745117,0.001
0.20118348300457,0.9399999976158142,0.23219197988510132,0.9342222213745117,0.001
0.20809005200862885,0.9380000233650208,0.23214106261730194,0.9342222213745117,0.001
0.19882714748382568,0.9419999718666077,0.23214377462863922,0.9342222213745117,0.001
0.20632120966911316,0.9399999976158142,0.2320787012577057,0.9342222213745117,0.001
0.19797639548778534,0.9419999718666077,0.2320515364408493,0.9342222213745117,0.001
0.19880250096321106,0.9440000057220459,0.23208002746105194,0.9342222213745117,0.001
0.21970418095588684,0.9399999976158142,0.23197823762893677,0.9342222213745117,0.001
0.19926857948303223,0.9399999976158142,0.2319532036781311,0.9342222213745117,0.001
0.20594583451747894,0.9399999976158142,0.23188713192939758,0.9344444274902344,0.001
0.21274027228355408,0.9399999976158142,0.2318064570426941,0.9346666932106018,0.001
0.2066592425107956,0.9419999718666077,0.2317860722541809,0.9346666932106018,0.001
0.20894350111484528,0.9380000233650208,0.23169392347335815,0.9346666932106018,0.001
0.19109389185905457,0.9380000233650208,0.23164904117584229,0.9346666932106018,0.001
0.20650866627693176,0.9359999895095825,0.23166310787200928,0.9346666932106018,0.001
0.2260831743478775,0.9380000233650208,0.23165307939052582,0.9346666932106018,0.001
0.1995428055524826,0.9419999718666077,0.2315962165594101,0.9346666932106018,0.001
0.20574603974819183,0.9380000233650208,0.23156516253948212,0.9346666932106018,0.001
0.1997624933719635,0.9419999718666077,0.2315402626991272,0.9346666932106018,0.001
0.23104742169380188,0.9440000057220459,0.2315303236246109,0.9346666932106018,0.001
0.20832213759422302,0.9399999976158142,0.2314768135547638,0.9346666932106018,0.001
0.20740346610546112,0.9419999718666077,0.2314022034406662,0.9346666932106018,0.001
0.21457479894161224,0.9380000233650208,0.23133449256420135,0.9346666932106018,0.001
0.1996389776468277,0.9480000138282776,0.23131752014160156,0.9346666932106018,0.001
0.2107085883617401,0.9480000138282776,0.23127688467502594,0.9346666932106018,0.001
0.2139684557914734,0.9459999799728394,0.23122045397758484,0.9346666932106018,0.001
0.1910121887922287,0.9440000057220459,0.23126253485679626,0.9346666932106018,0.001
0.21158839762210846,0.9419999718666077,0.23122604191303253,0.9346666932106018,0.001
0.21113163232803345,0.9459999799728394,0.23120993375778198,0.9346666932106018,0.001
0.21283458173274994,0.9359999895095825,0.2311224788427353,0.9346666932106018,0.001
0.2060585469007492,0.9419999718666077,0.23108436167240143,0.9346666932106018,0.001
0.2153031826019287,0.9399999976158142,0.23105818033218384,0.9346666932106018,0.001
0.21217265725135803,0.9399999976158142,0.2309839427471161,0.9346666932106018,0.001
0.20349319279193878,0.9440000057220459,0.23090440034866333,0.9346666932106018,0.001
0.20114818215370178,0.9380000233650208,0.2308904379606247,0.9346666932106018,0.001
0.22258470952510834,0.9380000233650208,0.23075269162654877,0.9346666932106018,0.001
0.22103136777877808,0.9399999976158142,0.23060917854309082,0.9348888993263245,0.001
0.2108226716518402,0.9380000233650208,0.23055794835090637,0.9348888993263245,0.001
0.211287260055542,0.9419999718666077,0.23053531348705292,0.9348888993263245,0.001
0.21381239593029022,0.9380000233650208,0.23042762279510498,0.9348888993263245,0.001
0.21352189779281616,0.949999988079071,0.23038417100906372,0.9348888993263245,0.001
0.2028445303440094,0.9399999976158142,0.2303798794746399,0.9348888993263245,0.001
0.22220270335674286,0.9440000057220459,0.23031261563301086,0.9348888993263245,0.001
0.19588369131088257,0.949999988079071,0.23035435378551483,0.9348888993263245,0.001
0.2022836059331894,0.9440000057220459,0.2302902787923813,0.9348888993263245,0.001
0.2101273387670517,0.9380000233650208,0.2302754521369934,0.9348888993263245,0.001
0.22515882551670074,0.9419999718666077,0.23020900785923004,0.9348888993263245,0.001
0.19363278150558472,0.9459999799728394,0.23017558455467224,0.9348888993263245,0.001
0.19702446460723877,0.9440000057220459,0.2302398830652237,0.9348888993263245,0.001
0.20925670862197876,0.9399999976158142,0.23021188378334045,0.9348888993263245,0.001
0.2176782488822937,0.9419999718666077,0.23011520504951477,0.9348888993263245,0.001
0.20546863973140717,0.9380000233650208,0.23010294139385223,0.9348888993263245,0.001
0.20770218968391418,0.9380000233650208,0.23008832335472107,0.9351111054420471,0.001
0.21742255985736847,0.9359999895095825,0.23005498945713043,0.9351111054420471,0.001
0.19526563584804535,0.9419999718666077,0.23003032803535461,0.9351111054420471,0.001
0.20628075301647186,0.9419999718666077,0.22997236251831055,0.9353333115577698,0.001
0.1999117136001587,0.9399999976158142,0.22994568943977356,0.9353333115577698,0.001
0.20280298590660095,0.9419999718666077,0.22987988591194153,0.9353333115577698,0.001
0.20686110854148865,0.9459999799728394,0.22989675402641296,0.9353333115577698,0.001
0.22471818327903748,0.9319999814033508,0.22995980083942413,0.9353333115577698,0.001
0.20743852853775024,0.9459999799728394,0.229910209774971,0.9353333115577698,0.001
0.22361648082733154,0.9399999976158142,0.22979865968227386,0.9355555772781372,0.001
0.21838174760341644,0.9399999976158142,0.22979967296123505,0.9355555772781372,0.001
0.1987258642911911,0.9440000057220459,0.22972466051578522,0.9355555772781372,0.001
0.20794689655303955,0.9399999976158142,0.22964860498905182,0.9355555772781372,0.001
0.19902858138084412,0.9459999799728394,0.22969667613506317,0.9355555772781372,0.001
0.19586679339408875,0.9419999718666077,0.22967860102653503,0.9355555772781372,0.001
0.20608510076999664,0.9419999718666077,0.22965294122695923,0.9357777833938599,0.001
0.2049674689769745,0.949999988079071,0.22966192662715912,0.9357777833938599,0.001
0.2083519548177719,0.9359999895095825,0.22960586845874786,0.9357777833938599,0.001
0.21589121222496033,0.9319999814033508,0.2294950932264328,0.9357777833938599,0.001
0.19860702753067017,0.9359999895095825,0.22947753965854645,0.9357777833938599,0.001
0.20865309238433838,0.9440000057220459,0.2294560819864273,0.9357777833938599,0.001
0.1978909820318222,0.9419999718666077,0.2294180542230606,0.9357777833938599,0.001
0.20873333513736725,0.9459999799728394,0.2293480932712555,0.9357777833938599,0.001
0.20733760297298431,0.9459999799728394,0.2293926626443863,0.9357777833938599,0.001
0.20391742885112762,0.9459999799728394,0.22925718128681183,0.9357777833938599,0.001
0.2192850559949875,0.9480000138282776,0.22920364141464233,0.9357777833938599,0.001
0.21242566406726837,0.9399999976158142,0.2291181981563568,0.9357777833938599,0.001
0.20379802584648132,0.9399999976158142,0.22908523678779602,0.9357777833938599,0.001
0.20888015627861023,0.9380000233650208,0.2290719449520111,0.9357777833938599,0.001
0.1990411877632141,0.9419999718666077,0.22896134853363037,0.9357777833938599,0.001
0.21182124316692352,0.9380000233650208,0.22892571985721588,0.9357777833938599,0.001
0.20976829528808594,0.9399999976158142,0.2289145439863205,0.9357777833938599,0.001
0.20402634143829346,0.9419999718666077,0.22888927161693573,0.9357777833938599,0.001
0.1938462108373642,0.9399999976158142,0.2288612723350525,0.9357777833938599,0.001
0.1965457648038864,0.9440000057220459,0.2288617044687271,0.9357777833938599,0.001
0.21272417902946472,0.9399999976158142,0.22890011966228485,0.9357777833938599,0.001
0.19645650684833527,0.9440000057220459,0.2288755625486374,0.9357777833938599,0.001
0.21631494164466858,0.9380000233650208,0.22885356843471527,0.9357777833938599,0.001
0.20143620669841766,0.9459999799728394,0.22881174087524414,0.9357777833938599,0.001
0.21072863042354584,0.9459999799728394,0.22885175049304962,0.9357777833938599,0.001
0.20621414482593536,0.9440000057220459,0.2287900596857071,0.9357777833938599,0.001
0.19158145785331726,0.9440000057220459,0.22878417372703552,0.9357777833938599,0.001
0.20601850748062134,0.9459999799728394,0.22873641550540924,0.9357777833938599,0.001
0.19500146806240082,0.949999988079071,0.22875162959098816,0.9357777833938599,0.001
0.21220946311950684,0.9419999718666077,0.22869324684143066,0.9357777833938599,0.001
0.19254593551158905,0.9440000057220459,0.2286708503961563,0.9357777833938599,0.001
0.1924993395805359,0.9440000057220459,0.22865182161331177,0.9357777833938599,0.001
0.20482084155082703,0.9440000057220459,0.22859260439872742,0.9357777833938599,0.001
0.20826520025730133,0.9419999718666077,0.22856105864048004,0.9357777833938599,0.001
0.19765926897525787,0.9440000057220459,0.22853027284145355,0.9357777833938599,0.001
0.19282376766204834,0.949999988079071,0.2285035252571106,0.9357777833938599,0.001
0.1987849473953247,0.9419999718666077,0.22844824194908142,0.9357777833938599,0.001
0.21839162707328796,0.9419999718666077,0.22846728563308716,0.9357777833938599,0.001
0.21818844974040985,0.9380000233650208,0.2284647673368454,0.9357777833938599,0.001
0.2096773386001587,0.9480000138282776,0.22848279774188995,0.9357777833938599,0.001
0.1956525593996048,0.9419999718666077,0.22843077778816223,0.9357777833938599,0.001
0.20896507799625397,0.9440000057220459,0.2283669412136078,0.9359999895095825,0.001
0.19713252782821655,0.949999988079071,0.22835767269134521,0.9359999895095825,0.001
0.2144036591053009,0.9459999799728394,0.22836558520793915,0.9359999895095825,0.001
0.2157091498374939,0.9419999718666077,0.22828420996665955,0.9359999895095825,0.001
0.20842577517032623,0.9319999814033508,0.22813332080841064,0.9362221956253052,0.001
0.19954897463321686,0.9419999718666077,0.22805283963680267,0.9364444613456726,0.001
0.20366202294826508,0.9399999976158142,0.22800780832767487,0.9364444613456726,0.001
0.1984853893518448,0.9440000057220459,0.22802287340164185,0.9364444613456726,0.001
0.2082860767841339,0.9419999718666077,0.22795385122299194,0.9364444613456726,0.001
0.21934464573860168,0.9419999718666077,0.22792784869670868,0.9364444613456726,0.001
0.20003743469715118,0.9419999718666077,0.22786599397659302,0.9364444613456726,0.001
0.21649327874183655,0.9399999976158142,0.22788166999816895,0.9364444613456726,0.001
0.20444338023662567,0.9399999976158142,0.22781157493591309,0.9364444613456726,0.001
0.19799178838729858,0.9399999976158142,0.22777721285820007,0.9364444613456726,0.001
0.20968540012836456,0.9440000057220459,0.2276899367570877,0.9364444613456726,0.001
0.19090750813484192,0.9399999976158142,0.2276904284954071,0.9364444613456726,0.001
0.18781061470508575,0.9459999799728394,0.22763888537883759,0.9364444613456726,0.001
0.19630661606788635,0.9399999976158142,0.22761480510234833,0.9364444613456726,0.001
0.18810462951660156,0.9459999799728394,0.2275909036397934,0.9364444613456726,0.001
0.19220300018787384,0.9440000057220459,0.22753237187862396,0.9364444613456726,0.001
0.2045334130525589,0.9419999718666077,0.22743941843509674,0.9364444613456726,0.001
0.1884087324142456,0.9480000138282776,0.22735631465911865,0.9364444613456726,0.001
0.20209874212741852,0.9419999718666077,0.2273133248090744,0.9364444613456726,0.001
0.1968168169260025,0.9480000138282776,0.22724349796772003,0.9364444613456726,0.001
0.18702659010887146,0.9440000057220459,0.2272203117609024,0.9364444613456726,0.001
0.19411471486091614,0.9399999976158142,0.227234348654747,0.9364444613456726,0.001
0.20291227102279663,0.9380000233650208,0.22720769047737122,0.9364444613456726,0.001
0.18603253364562988,0.9480000138282776,0.2271955907344818,0.9364444613456726,0.001
0.20709726214408875,0.949999988079071,0.22721508145332336,0.9364444613456726,0.001
0.19762076437473297,0.9459999799728394,0.22720220685005188,0.9364444613456726,0.001
0.1953485906124115,0.9419999718666077,0.2271517813205719,0.9364444613456726,0.001
0.1912330836057663,0.9419999718666077,0.22704662382602692,0.9364444613456726,0.001
0.19144244492053986,0.9480000138282776,0.22698372602462769,0.9364444613456726,0.001
0.2092042714357376,0.9419999718666077,0.226927250623703,0.9364444613456726,0.001
0.20076319575309753,0.9399999976158142,0.22689564526081085,0.9364444613456726,0.001
0.21422316133975983,0.9480000138282776,0.22688773274421692,0.9364444613456726,0.001
0.19130609929561615,0.949999988079071,0.22695167362689972,0.9364444613456726,0.001
0.18735243380069733,0.9440000057220459,0.2269410938024521,0.9364444613456726,0.001
0.20884893834590912,0.9419999718666077,0.22685663402080536,0.9364444613456726,0.001
0.2014889419078827,0.9399999976158142,0.22677361965179443,0.9364444613456726,0.001
0.19979743659496307,0.949999988079071,0.2267238199710846,0.9366666674613953,0.001
0.19487076997756958,0.9459999799728394,0.22672951221466064,0.9366666674613953,0.001
0.19682766497135162,0.9399999976158142,0.22680267691612244,0.9366666674613953,0.001
0.17972950637340546,0.9480000138282776,0.2267719954252243,0.9366666674613953,0.001
0.17927902936935425,0.9459999799728394,0.22674724459648132,0.9366666674613953,0.001
0.18994596600532532,0.9440000057220459,0.22669777274131775,0.9366666674613953,0.001
0.2122528851032257,0.9399999976158142,0.22668087482452393,0.9366666674613953,0.001
0.19425256550312042,0.9480000138282776,0.2265833467245102,0.9368888735771179,0.001
0.2176966369152069,0.9340000152587891,0.22655664384365082,0.9371111392974854,0.001
0.19740286469459534,0.9480000138282776,0.2265026867389679,0.9368888735771179,0.001
0.20298078656196594,0.9419999718666077,0.22651250660419464,0.9371111392974854,0.001
0.19947899878025055,0.9419999718666077,0.22648489475250244,0.9371111392974854,0.001
0.2068757265806198,0.9399999976158142,0.22640052437782288,0.9371111392974854,0.001
0.19987711310386658,0.9459999799728394,0.2264588624238968,0.9371111392974854,0.001
0.19494104385375977,0.9440000057220459,0.22650016844272614,0.9371111392974854,0.001
0.19557619094848633,0.9440000057220459,0.22653575241565704,0.9371111392974854,0.001
0.20567137002944946,0.9480000138282776,0.22648446261882782,0.937333345413208,0.001
0.20536281168460846,0.9419999718666077,0.22645995020866394,0.937333345413208,0.001
0.18116557598114014,0.9440000057220459,0.22642429172992706,0.937333345413208,0.001
0.18977540731430054,0.9440000057220459,0.22644490003585815,0.937333345413208,0.001
0.21483242511749268,0.9459999799728394,0.22640080749988556,0.937333345413208,0.001
0.2070802003145218,0.9480000138282776,0.22627802193164825,0.9375555515289307,0.001
0.20869053900241852,0.9399999976158142,0.2262231409549713,0.9375555515289307,0.001
0.21653130650520325,0.9399999976158142,0.22616954147815704,0.9375555515289307,0.001
0.20494402945041656,0.9419999718666077,0.22621320188045502,0.9375555515289307,0.001
0.18822403252124786,0.9440000057220459,0.2261810004711151,0.9375555515289307,0.001
0.20299528539180756,0.9440000057220459,0.22621279954910278,0.9375555515289307,0.001
0.18974344432353973,0.9419999718666077,0.226178839802742,0.9375555515289307,0.001
0.20150895416736603,0.9459999799728394,0.22610676288604736,0.9375555515289307,0.001
0.19863753020763397,0.9459999799728394,0.2260787934064865,0.9375555515289307,0.001
0.19334566593170166,0.9419999718666077,0.22607353329658508,0.9375555515289307,0.001
0.2025042474269867,0.949999988079071,0.22605083882808685,0.9377777576446533,0.001
0.20454606413841248,0.9380000233650208,0.2260042428970337,0.9377777576446533,0.001
0.1961962878704071,0.9459999799728394,0.22593767940998077,0.9377777576446533,0.001
0.1760604828596115,0.9459999799728394,0.22587062418460846,0.9380000233650208,0.001
0.20211675763130188,0.9480000138282776,0.22580993175506592,0.9380000233650208,0.001
0.20141853392124176,0.9399999976158142,0.22575272619724274,0.9380000233650208,0.001
0.19851496815681458,0.9399999976158142,0.22581984102725983,0.9377777576446533,0.001
0.1869562715291977,0.9440000057220459,0.2258356511592865,0.9377777576446533,0.001
0.19469358026981354,0.9419999718666077,0.22576478123664856,0.9377777576446533,0.001
0.20690031349658966,0.9419999718666077,0.22569459676742554,0.9380000233650208,0.001
0.1941540390253067,0.9440000057220459,0.22562827169895172,0.9380000233650208,0.001
0.2007627636194229,0.9380000233650208,0.2256155163049698,0.9380000233650208,0.001
0.17887046933174133,0.949999988079071,0.22560027241706848,0.9380000233650208,0.001
0.19377641379833221,0.9440000057220459,0.22561493515968323,0.9380000233650208,0.001
0.19193963706493378,0.9480000138282776,0.22562745213508606,0.9380000233650208,0.001
0.19878464937210083,0.9419999718666077,0.22561213374137878,0.9377777576446533,0.001
0.2053133249282837,0.9440000057220459,0.22562406957149506,0.9375555515289307,0.001
0.19865219295024872,0.9440000057220459,0.22557617723941803,0.9380000233650208,0.001
0.20277994871139526,0.9399999976158142,0.22553595900535583,0.9375555515289307,0.001
0.2021436095237732,0.9419999718666077,0.2254473716020584,0.9377777576446533,0.001
0.1836637556552887,0.9399999976158142,0.22536739706993103,0.9377777576446533,0.001
0.18606749176979065,0.9440000057220459,0.22536583244800568,0.9377777576446533,0.001
0.1912364363670349,0.9480000138282776,0.22533971071243286,0.9377777576446533,0.001
0.1899242401123047,0.9399999976158142,0.22532373666763306,0.9380000233650208,0.001
0.21144238114356995,0.9419999718666077,0.22531099617481232,0.9380000233650208,0.001
0.19524244964122772,0.949999988079071,0.22521470487117767,0.9380000233650208,0.001
0.19939175248146057,0.9399999976158142,0.22523926198482513,0.9380000233650208,0.001
0.19136470556259155,0.9440000057220459,0.22521984577178955,0.9377777576446533,0.001
0.18956533074378967,0.9459999799728394,0.2252025604248047,0.9377777576446533,0.001
0.1836826652288437,0.9459999799728394,0.22510096430778503,0.9380000233650208,0.001
0.20016713440418243,0.9399999976158142,0.225038543343544,0.9382222294807434,0.001
0.2026035189628601,0.9419999718666077,0.22496888041496277,0.9384444355964661,0.001
0.19938088953495026,0.9419999718666077,0.22496062517166138,0.9384444355964661,0.001
0.19937068223953247,0.9419999718666077,0.22491392493247986,0.9384444355964661,0.001
0.18899795413017273,0.9459999799728394,0.2249678075313568,0.9384444355964661,0.001
0.20051445066928864,0.9440000057220459,0.22500142455101013,0.9382222294807434,0.001
0.1866055727005005,0.9459999799728394,0.22500073909759521,0.9380000233650208,0.001
0.2068447321653366,0.949999988079071,0.22499974071979523,0.9380000233650208,0.001
0.19029666483402252,0.949999988079071,0.22499246895313263,0.9380000233650208,0.001
0.1964520812034607,0.9419999718666077,0.2249244749546051,0.9380000233650208,0.001
0.19850608706474304,0.9459999799728394,0.22494064271450043,0.9380000233650208,0.001
0.20060893893241882,0.9419999718666077,0.2249177098274231,0.9380000233650208,0.001
0.18533670902252197,0.9520000219345093,0.22489841282367706,0.9382222294807434,0.001
0.1994141787290573,0.9399999976158142,0.22483041882514954,0.9382222294807434,0.001
0.2178000956773758,0.9380000233650208,0.2247597724199295,0.9380000233650208,0.001
0.1970432698726654,0.9459999799728394,0.2247483730316162,0.9380000233650208,0.001
0.20988237857818604,0.9440000057220459,0.2246829718351364,0.9380000233650208,0.001
0.18105626106262207,0.9459999799728394,0.2246984839439392,0.9380000233650208,0.001
0.1826573610305786,0.949999988079071,0.22470039129257202,0.9380000233650208,0.001
0.19522106647491455,0.9440000057220459,0.2246444672346115,0.9380000233650208,0.001
0.19442617893218994,0.9419999718666077,0.22465546429157257,0.9382222294807434,0.001
0.19855237007141113,0.9399999976158142,0.2246321737766266,0.9382222294807434,0.001
0.1854071319103241,0.9399999976158142,0.22464679181575775,0.9382222294807434,0.001
0.19111338257789612,0.9459999799728394,0.22458267211914062,0.9382222294807434,0.001
0.20378997921943665,0.949999988079071,0.22451511025428772,0.9382222294807434,0.001
0.2021227329969406,0.9380000233650208,0.22443129122257233,0.9382222294807434,0.001
0.19430425763130188,0.9480000138282776,0.22446203231811523,0.9382222294807434,0.001
0.19821999967098236,0.949999988079071,0.22444698214530945,0.9382222294807434,0.001
0.17781883478164673,0.949999988079071,0.2244274616241455,0.9380000233650208,0.001
0.21197977662086487,0.9380000233650208,0.22448980808258057,0.9382222294807434,0.001
0.191552072763443,0.9459999799728394,0.22445932030677795,0.9382222294807434,0.001
0.1945483684539795,0.9440000057220459,0.22443059086799622,0.9382222294807434,0.001
0.1973217874765396,0.9440000057220459,0.22441637516021729,0.9382222294807434,0.001
0.17680372297763824,0.949999988079071,0.22443468868732452,0.9382222294807434,0.001
0.20244497060775757,0.949999988079071,0.22437965869903564,0.9382222294807434,0.001
0.19159582257270813,0.9419999718666077,0.22430139780044556,0.9382222294807434,0.001
0.19439786672592163,0.9480000138282776,0.22427278757095337,0.9382222294807434,0.001
0.19504602253437042,0.9459999799728394,0.22421661019325256,0.9382222294807434,0.001
0.19196614623069763,0.949999988079071,0.2242065817117691,0.9382222294807434,0.001
0.2053086757659912,0.9459999799728394,0.22420454025268555,0.9382222294807434,0.001
0.1868477612733841,0.9480000138282776,0.22422176599502563,0.9382222294807434,0.001
0.19422203302383423,0.9480000138282776,0.22425143420696259,0.9382222294807434,0.001
0.1924082338809967,0.9520000219345093,0.22423584759235382,0.9382222294807434,0.001
0.1884186565876007,0.9480000138282776,0.22426554560661316,0.9382222294807434,0.001
0.19307537376880646,0.9480000138282776,0.2242654412984848,0.9382222294807434,0.001
0.21093004941940308,0.9440000057220459,0.22424256801605225,0.9382222294807434,0.001
0.18944737315177917,0.9480000138282776,0.2243466079235077,0.9382222294807434,0.001
0.19282469153404236,0.9419999718666077,0.22432196140289307,0.9382222294807434,0.001
0.1917211413383484,0.949999988079071,0.22427158057689667,0.9382222294807434,0.001
0.18231436610221863,0.9459999799728394,0.2242770493030548,0.9382222294807434,0.001
0.1976160854101181,0.9419999718666077,0.22422514855861664,0.9382222294807434,0.001
0.20289276540279388,0.9480000138282776,0.22420048713684082,0.9382222294807434,0.001
0.18825845420360565,0.9480000138282776,0.22419676184654236,0.9382222294807434,0.001
0.1805380880832672,0.9539999961853027,0.22411446273326874,0.9382222294807434,0.001
0.18393203616142273,0.949999988079071,0.22408434748649597,0.9382222294807434,0.001
0.19779382646083832,0.9440000057220459,0.2240711748600006,0.9382222294807434,0.001
0.19828087091445923,0.9480000138282776,0.22403699159622192,0.9382222294807434,0.001
0.18557274341583252,0.949999988079071,0.22400763630867004,0.9382222294807434,0.001
0.19389331340789795,0.9419999718666077,0.22396880388259888,0.9382222294807434,0.001
0.2026473432779312,0.9419999718666077,0.2239316999912262,0.9382222294807434,0.001
0.1903390735387802,0.9459999799728394,0.2239295244216919,0.9382222294807434,0.001
0.18960073590278625,0.9419999718666077,0.22391454875469208,0.9382222294807434,0.001
0.21220844984054565,0.9399999976158142,0.22386720776557922,0.9382222294807434,0.001
0.18616212904453278,0.9440000057220459,0.22381387650966644,0.9382222294807434,0.001
0.18990664184093475,0.9419999718666077,0.2237907499074936,0.9382222294807434,0.001
0.19166885316371918,0.9459999799728394,0.22373104095458984,0.9382222294807434,0.001
0.18782024085521698,0.949999988079071,0.2237101048231125,0.9382222294807434,0.001
0.185178741812706,0.949999988079071,0.22370532155036926,0.9382222294807434,0.001
0.19486497342586517,0.949999988079071,0.2236260026693344,0.9382222294807434,0.001
0.18688179552555084,0.949999988079071,0.22364658117294312,0.9382222294807434,0.001
0.1826135665178299,0.9480000138282776,0.2237032949924469,0.9384444355964661,0.001
0.19136358797550201,0.9399999976158142,0.22366929054260254,0.9384444355964661,0.001
0.18875731527805328,0.9440000057220459,0.2236221581697464,0.9384444355964661,0.001
0.1810581386089325,0.9399999976158142,0.22355791926383972,0.9384444355964661,0.001
0.19265054166316986,0.9480000138282776,0.2235420197248459,0.9384444355964661,0.001
0.20242170989513397,0.949999988079071,0.22350935637950897,0.9384444355964661,0.001
0.19325418770313263,0.9440000057220459,0.2235255241394043,0.9384444355964661,0.001
0.18516698479652405,0.9440000057220459,0.22352658212184906,0.9384444355964661,0.001
0.1846931427717209,0.9480000138282776,0.22358180582523346,0.9384444355964661,0.001
0.1824294924736023,0.9440000057220459,0.2235293835401535,0.9384444355964661,0.001
0.19191597402095795,0.949999988079071,0.22350798547267914,0.9384444355964661,0.001
0.18268455564975739,0.9480000138282776,0.2234702855348587,0.9384444355964661,0.001
0.19322992861270905,0.9459999799728394,0.2234409898519516,0.9384444355964661,0.001
0.19849570095539093,0.9440000057220459,0.22343985736370087,0.9384444355964661,0.001
0.18413349986076355,0.9419999718666077,0.22346793115139008,0.9384444355964661,0.001
0.18804186582565308,0.9419999718666077,0.22344142198562622,0.9384444355964661,0.001
0.17457523941993713,0.9459999799728394,0.22344553470611572,0.9384444355964661,0.001
0.19330845773220062,0.9480000138282776,0.22344814240932465,0.9384444355964661,0.001
0.1893157958984375,0.9459999799728394,0.22341783344745636,0.9384444355964661,0.001
0.1791572868824005,0.949999988079071,0.22344404458999634,0.9384444355964661,0.001
0.18592332303524017,0.949999988079071,0.22340360283851624,0.9384444355964661,0.001
0.20414011180400848,0.9419999718666077,0.22339388728141785,0.9384444355964661,0.001
0.1859769970178604,0.9480000138282776,0.22339989244937897,0.9384444355964661,0.001
0.18701370060443878,0.949999988079071,0.22335466742515564,0.9384444355964661,0.001
0.19462719559669495,0.949999988079071,0.22331681847572327,0.9384444355964661,0.001
0.19152288138866425,0.9459999799728394,0.2232474833726883,0.9384444355964661,0.001
0.19696363806724548,0.9459999799728394,0.22323782742023468,0.9384444355964661,0.001
0.19699552655220032,0.9459999799728394,0.2231506109237671,0.9384444355964661,0.001
0.18560895323753357,0.9459999799728394,0.2231130599975586,0.9384444355964661,0.001
0.18777506053447723,0.9480000138282776,0.22307929396629333,0.9384444355964661,0.001
0.18828390538692474,0.949999988079071,0.22309763729572296,0.9391111135482788,0.001
0.19240236282348633,0.9440000057220459,0.22304488718509674,0.9393333196640015,0.001
0.20461465418338776,0.949999988079071,0.2230268120765686,0.9393333196640015,0.001
0.18658290803432465,0.9419999718666077,0.22303122282028198,0.9393333196640015,0.001
0.19128765165805817,0.9459999799728394,0.22302281856536865,0.9393333196640015,0.001
0.20090873539447784,0.949999988079071,0.22299519181251526,0.9393333196640015,0.001
0.18623118102550507,0.9399999976158142,0.22302299737930298,0.9393333196640015,0.001
0.18423739075660706,0.9459999799728394,0.22301799058914185,0.9393333196640015,0.001
0.19972385466098785,0.9459999799728394,0.22289933264255524,0.9393333196640015,0.001
0.1997774988412857,0.9419999718666077,0.22290967404842377,0.9393333196640015,0.001
0.18007022142410278,0.949999988079071,0.22293458878993988,0.9393333196640015,0.001
0.1755874752998352,0.949999988079071,0.222887322306633,0.9393333196640015,0.001
0.1943991631269455,0.9480000138282776,0.22283807396888733,0.9393333196640015,0.001
0.1842726171016693,0.9419999718666077,0.2228035032749176,0.9395555257797241,0.001
0.19028052687644958,0.9440000057220459,0.22283229231834412,0.9395555257797241,0.001
0.17343920469284058,0.9480000138282776,0.2227935492992401,0.9395555257797241,0.001
0.1941506415605545,0.9440000057220459,0.2228131890296936,0.9395555257797241,0.001
0.17109429836273193,0.9539999961853027,0.22276586294174194,0.9395555257797241,0.001
0.19062481820583344,0.9440000057220459,0.2227306067943573,0.9395555257797241,0.001
0.18859514594078064,0.9440000057220459,0.22271782159805298,0.9395555257797241,0.001
0.18424272537231445,0.949999988079071,0.2226715236902237,0.9395555257797241,0.001
0.17795613408088684,0.949999988079071,0.22268220782279968,0.9395555257797241,0.001
0.20285868644714355,0.949999988079071,0.22264467179775238,0.9395555257797241,0.001
0.19394339621067047,0.9440000057220459,0.22266438603401184,0.9393333196640015,0.001
0.18423190712928772,0.9459999799728394,0.2226148098707199,0.9393333196640015,0.001
0.18502910435199738,0.9419999718666077,0.2225825935602188,0.9393333196640015,0.001
0.17937485873699188,0.9520000219345093,0.2225976288318634,0.9393333196640015,0.001
0.17145445942878723,0.9459999799728394,0.22257892787456512,0.9395555257797241,0.001
0.18559828400611877,0.9459999799728394,0.22255828976631165,0.9395555257797241,0.001
0.18895339965820312,0.9459999799728394,0.22255581617355347,0.9395555257797241,0.001
0.18538528680801392,0.9480000138282776,0.22255149483680725,0.9395555257797241,0.001
0.18346278369426727,0.949999988079071,0.2226042002439499,0.9395555257797241,0.001
0.1873883754014969,0.9419999718666077,0.2225789576768875,0.9395555257797241,0.001
0.1846223920583725,0.949999988079071,0.22253577411174774,0.9395555257797241,0.001
0.1841442883014679,0.9440000057220459,0.22246627509593964,0.9395555257797241,0.001
0.19583866000175476,0.949999988079071,0.22241929173469543,0.9397777915000916,0.001
0.1800062656402588,0.9480000138282776,0.22242587804794312,0.9397777915000916,0.001
0.19008862972259521,0.9459999799728394,0.22248438000679016,0.9397777915000916,0.001
0.18083807826042175,0.9419999718666077,0.22244957089424133,0.9397777915000916,0.001
0.19039765000343323,0.9459999799728394,0.22239793837070465,0.9397777915000916,0.001
0.19110195338726044,0.9480000138282776,0.22240668535232544,0.9397777915000916,0.001
0.17979685962200165,0.949999988079071,0.2223690301179886,0.9397777915000916,0.001
0.18979321420192719,0.9459999799728394,0.22235271334648132,0.9397777915000916,0.001
0.18387433886528015,0.9440000057220459,0.22237494587898254,0.9397777915000916,0.001
0.19038225710391998,0.9459999799728394,0.22235941886901855,0.9397777915000916,0.001
0.18873897194862366,0.9459999799728394,0.2223457396030426,0.9399999976158142,0.001
0.18978014588356018,0.9459999799728394,0.22232861816883087,0.9399999976158142,0.001
0.17842870950698853,0.9520000219345093,0.22233177721500397,0.9399999976158142,0.001
0.18803749978542328,0.9459999799728394,0.22229652106761932,0.9399999976158142,0.001
0.19089896976947784,0.9440000057220459,0.22225366532802582,0.9399999976158142,0.001
0.19388414919376373,0.9459999799728394,0.22225221991539001,0.9399999976158142,0.001
0.18164950609207153,0.949999988079071,0.22222492098808289,0.9399999976158142,0.001
0.1836014986038208,0.9480000138282776,0.22223740816116333,0.9399999976158142,0.001
0.19187647104263306,0.9459999799728394,0.22217680513858795,0.9402222037315369,0.001
0.1939794272184372,0.9399999976158142,0.2221529185771942,0.9399999976158142,0.001
0.17524048686027527,0.949999988079071,0.22212336957454681,0.9399999976158142,0.001
0.18814896047115326,0.9419999718666077,0.2220667004585266,0.9404444694519043,0.001
0.18138045072555542,0.9520000219345093,0.221974715590477,0.9404444694519043,0.001
0.172630175948143,0.949999988079071,0.22201655805110931,0.9404444694519043,0.001
0.1922113448381424,0.9459999799728394,0.22193145751953125,0.9404444694519043,0.001
0.17571160197257996,0.949999988079071,0.22190061211585999,0.9404444694519043,0.001
0.1694466471672058,0.9459999799728394,0.22189174592494965,0.9404444694519043,0.001
0.17999184131622314,0.9440000057220459,0.2219138741493225,0.9404444694519043,0.001
0.1846584677696228,0.949999988079071,0.22191575169563293,0.9404444694519043,0.001
0.18820631504058838,0.949999988079071,0.22192434966564178,0.940666675567627,0.001
0.17809726297855377,0.9520000219345093,0.22193865478038788,0.940666675567627,0.001
0.18136049807071686,0.9480000138282776,0.22194206714630127,0.940666675567627,0.001
0.1848369985818863,0.9480000138282776,0.22185741364955902,0.940666675567627,0.001
0.17138122022151947,0.9520000219345093,0.22182802855968475,0.940666675567627,0.001
0.18432189524173737,0.9419999718666077,0.22184425592422485,0.940666675567627,0.001
0.19286610186100006,0.9480000138282776,0.22181157767772675,0.940666675567627,0.001
0.1779392957687378,0.949999988079071,0.2218373566865921,0.940666675567627,0.001
0.18445925414562225,0.949999988079071,0.22177530825138092,0.940666675567627,0.001
0.18877074122428894,0.9459999799728394,0.22176077961921692,0.940666675567627,0.001
0.1863240897655487,0.9459999799728394,0.22176493704319,0.940666675567627,0.001
0.17967399954795837,0.949999988079071,0.2217472940683365,0.940666675567627,0.001
0.1732235997915268,0.9520000219345093,0.22183668613433838,0.940666675567627,0.001
0.18037281930446625,0.9480000138282776,0.22179065644741058,0.940666675567627,0.001
0.17629684507846832,0.9459999799728394,0.2217826396226883,0.940666675567627,0.001
0.17552593350410461,0.949999988079071,0.22177523374557495,0.940666675567627,0.001
0.17905186116695404,0.9440000057220459,0.22170646488666534,0.940666675567627,0.001
0.18420375883579254,0.9539999961853027,0.22169390320777893,0.940666675567627,0.001
0.18953530490398407,0.949999988079071,0.22166243195533752,0.940666675567627,0.001
0.18811312317848206,0.9520000219345093,0.22159519791603088,0.940666675567627,0.001
0.18381401896476746,0.9459999799728394,0.2215534895658493,0.940666675567627,0.001
0.18378205597400665,0.9480000138282776,0.22158288955688477,0.940666675567627,0.001
0.18289829790592194,0.9480000138282776,0.22157879173755646,0.940666675567627,0.001
0.17585735023021698,0.9520000219345093,0.22164878249168396,0.940666675567627,0.001
0.1780179888010025,0.9399999976158142,0.221633642911911,0.940666675567627,0.001
0.18005405366420746,0.9480000138282776,0.22166208922863007,0.940666675567627,0.001
0.18066510558128357,0.9480000138282776,0.22164185345172882,0.940666675567627,0.001
0.18189343810081482,0.949999988079071,0.22166062891483307,0.940666675567627,0.001
0.1859532594680786,0.9480000138282776,0.22157099843025208,0.940666675567627,0.001
0.19330048561096191,0.949999988079071,0.22148634493350983,0.940666675567627,0.001
0.20184697210788727,0.9459999799728394,0.22136200964450836,0.940666675567627,0.001
0.19695521891117096,0.9459999799728394,0.22136570513248444,0.940666675567627,0.001
0.18136562407016754,0.9480000138282776,0.22132231295108795,0.940666675567627,0.001
0.18422377109527588,0.949999988079071,0.22130796313285828,0.940666675567627,0.001
0.1802031695842743,0.9480000138282776,0.22129790484905243,0.940666675567627,0.001
0.19062231481075287,0.9480000138282776,0.22132940590381622,0.9404444694519043,0.001
0.18083177506923676,0.9480000138282776,0.22135388851165771,0.9404444694519043,0.001
0.17661231756210327,0.9459999799728394,0.22130915522575378,0.9404444694519043,0.001
0.18330806493759155,0.9520000219345093,0.2212417721748352,0.9404444694519043,0.001
0.1738479733467102,0.9520000219345093,0.22121798992156982,0.9404444694519043,0.001
0.17902010679244995,0.9480000138282776,0.2212364673614502,0.9404444694519043,0.001
0.1784122735261917,0.949999988079071,0.22117550671100616,0.9404444694519043,0.001
0.18609580397605896,0.9440000057220459,0.22107261419296265,0.9404444694519043,0.001
0.1735827922821045,0.9440000057220459,0.22103723883628845,0.9404444694519043,0.001
0.167525053024292,0.9480000138282776,0.22098694741725922,0.9404444694519043,0.001
0.17080490291118622,0.9559999704360962,0.22097207605838776,0.9404444694519043,0.001
0.2025742530822754,0.9520000219345093,0.22095295786857605,0.9404444694519043,0.001
0.1792735457420349,0.9520000219345093,0.22093600034713745,0.9404444694519043,0.001
0.19761697947978973,0.9380000233650208,0.22087860107421875,0.9404444694519043,0.001
0.1834215372800827,0.949999988079071,0.22086459398269653,0.9404444694519043,0.001
0.17452415823936462,0.9440000057220459,0.22091758251190186,0.9404444694519043,0.001
0.18492889404296875,0.949999988079071,0.22099098563194275,0.9404444694519043,0.001
0.18555356562137604,0.9440000057220459,0.22100023925304413,0.9404444694519043,0.001
0.1855531930923462,0.9459999799728394,0.22100211679935455,0.9404444694519043,0.001
0.1717158704996109,0.9539999961853027,0.22100895643234253,0.9404444694519043,0.001
0.18744058907032013,0.9480000138282776,0.22100652754306793,0.9404444694519043,0.001
0.19222749769687653,0.9520000219345093,0.22101302444934845,0.9404444694519043,0.001
0.19419345259666443,0.9459999799728394,0.22093522548675537,0.9404444694519043,0.001
0.19334955513477325,0.9419999718666077,0.22090227901935577,0.9404444694519043,0.001
0.18008895218372345,0.9459999799728394,0.22091394662857056,0.9404444694519043,0.001
0.1749950498342514,0.949999988079071,0.22082294523715973,0.9404444694519043,0.001
0.18845929205417633,0.9539999961853027,0.22080399096012115,0.9404444694519043,0.001
0.18337953090667725,0.9480000138282776,0.2207709699869156,0.9404444694519043,0.001
0.17660382390022278,0.949999988079071,0.22076040506362915,0.940666675567627,0.001
0.19028128683567047,0.9459999799728394,0.22076891362667084,0.940666675567627,0.001
0.19153912365436554,0.9440000057220459,0.22074776887893677,0.940666675567627,0.001
0.17528997361660004,0.949999988079071,0.22071069478988647,0.940666675567627,0.001
0.1845584213733673,0.9480000138282776,0.22074688971042633,0.940666675567627,0.001
0.1910666972398758,0.9539999961853027,0.2207021564245224,0.940666675567627,0.001
0.17328496277332306,0.9520000219345093,0.220664381980896,0.940666675567627,0.001
0.19195298850536346,0.9520000219345093,0.22065234184265137,0.940666675567627,0.001
0.18891561031341553,0.949999988079071,0.22064578533172607,0.940666675567627,0.001
0.15820260345935822,0.9520000219345093,0.22065018117427826,0.9408888816833496,0.001
0.17669202387332916,0.949999988079071,0.22060741484165192,0.9408888816833496,0.001
0.1836887151002884,0.949999988079071,0.22056278586387634,0.9408888816833496,0.001
0.19063636660575867,0.9480000138282776,0.2205381989479065,0.9408888816833496,0.001
0.17320756614208221,0.949999988079071,0.22048214077949524,0.9408888816833496,0.001
0.17378000915050507,0.9520000219345093,0.22050593793392181,0.9408888816833496,0.001
0.17659804224967957,0.9480000138282776,0.220516636967659,0.9408888816833496,0.001
0.18099245429039001,0.9459999799728394,0.22041787207126617,0.9411110877990723,0.001
0.17577306926250458,0.949999988079071,0.2204180210828781,0.9411110877990723,0.001
0.178900346159935,0.949999988079071,0.22041535377502441,0.9411110877990723,0.001
0.16879381239414215,0.949999988079071,0.22035063803195953,0.9411110877990723,0.001
0.18081456422805786,0.9539999961853027,0.22031646966934204,0.9411110877990723,0.001
0.17992709577083588,0.9459999799728394,0.22032581269741058,0.9411110877990723,0.001
0.19327586889266968,0.9480000138282776,0.22035330533981323,0.9411110877990723,0.001
0.18055814504623413,0.949999988079071,0.22030001878738403,0.9411110877990723,0.001
0.18217280507087708,0.9480000138282776,0.22024016082286835,0.9411110877990723,0.001
0.17433905601501465,0.9459999799728394,0.22016017138957977,0.9411110877990723,0.001
0.18395686149597168,0.9440000057220459,0.22013936936855316,0.9411110877990723,0.001
0.17620804905891418,0.9520000219345093,0.2201349437236786,0.9411110877990723,0.001
0.17787450551986694,0.9520000219345093,0.22010323405265808,0.9411110877990723,0.001
0.18308696150779724,0.9520000219345093,0.22011350095272064,0.9411110877990723,0.001
0.17184120416641235,0.9459999799728394,0.22015607357025146,0.9411110877990723,0.001
0.1796446442604065,0.9480000138282776,0.22016413509845734,0.9413333535194397,0.001
0.1746164709329605,0.9520000219345093,0.22018419206142426,0.9413333535194397,0.001
0.18287619948387146,0.9459999799728394,0.22013960778713226,0.9413333535194397,0.001
0.18301771581172943,0.949999988079071,0.22011776268482208,0.9413333535194397,0.001
0.1806737631559372,0.9520000219345093,0.22006413340568542,0.9413333535194397,0.001
0.17611806094646454,0.949999988079071,0.2200159728527069,0.9413333535194397,0.001
0.17866693437099457,0.9520000219345093,0.2200455665588379,0.9413333535194397,0.001
0.18452511727809906,0.9520000219345093,0.22008225321769714,0.9413333535194397,0.001
0.1767316609621048,0.9459999799728394,0.2200496941804886,0.9413333535194397,0.001
0.18352262675762177,0.9480000138282776,0.22001951932907104,0.9413333535194397,0.001
0.17140932381153107,0.9520000219345093,0.22004543244838715,0.9413333535194397,0.001
0.1862257719039917,0.949999988079071,0.22001098096370697,0.9413333535194397,0.001
0.17892751097679138,0.9459999799728394,0.22000613808631897,0.9413333535194397,0.001
0.17820397019386292,0.9520000219345093,0.21998654305934906,0.9413333535194397,0.001
0.18689429759979248,0.9539999961853027,0.21994836628437042,0.9413333535194397,0.001
0.1834907829761505,0.9459999799728394,0.21992599964141846,0.9413333535194397,0.001
0.19490595161914825,0.949999988079071,0.21990491449832916,0.9408888816833496,0.001
0.19680345058441162,0.9419999718666077,0.2198793888092041,0.9408888816833496,0.001
0.17737576365470886,0.949999988079071,0.2198377102613449,0.9408888816833496,0.001
0.1825343519449234,0.949999988079071,0.21985173225402832,0.9408888816833496,0.001
0.19650216400623322,0.9459999799728394,0.21975943446159363,0.9408888816833496,0.001
0.1879497915506363,0.9440000057220459,0.21973349153995514,0.9408888816833496,0.001
0.17991378903388977,0.9480000138282776,0.219745934009552,0.9411110877990723,0.001
0.18265804648399353,0.9459999799728394,0.21971172094345093,0.9408888816833496,0.001
0.18446756899356842,0.9539999961853027,0.21972033381462097,0.9408888816833496,0.001
0.17259222269058228,0.949999988079071,0.21972893178462982,0.9408888816833496,0.001
0.17972294986248016,0.9459999799728394,0.2197502702474594,0.9408888816833496,0.001
0.18512900173664093,0.9539999961853027,0.21976657211780548,0.9408888816833496,0.001
0.1606871634721756,0.9520000219345093,0.21978938579559326,0.9408888816833496,0.001
0.17248468101024628,0.949999988079071,0.21978464722633362,0.9408888816833496,0.001
0.17386874556541443,0.9520000219345093,0.2197398543357849,0.9408888816833496,0.001
0.19148574769496918,0.9440000057220459,0.21967412531375885,0.9408888816833496,0.001
0.17949478328227997,0.9539999961853027,0.21963337063789368,0.9408888816833496,0.001
0.17529313266277313,0.9459999799728394,0.21965904533863068,0.9408888816833496,0.001
0.17797264456748962,0.949999988079071,0.21964910626411438,0.9408888816833496,0.001
0.1820419579744339,0.949999988079071,0.21962101757526398,0.9408888816833496,0.001
0.19045184552669525,0.949999988079071,0.21954067051410675,0.9408888816833496,0.001
0.18482325971126556,0.949999988079071,0.2195621281862259,0.9408888816833496,0.001
0.19764693081378937,0.949999988079071,0.2195434272289276,0.9408888816833496,0.001
0.18023037910461426,0.9480000138282776,0.2195225954055786,0.9408888816833496,0.001
0.1783580482006073,0.9559999704360962,0.21950238943099976,0.9408888816833496,0.001
0.18020127713680267,0.9520000219345093,0.21948884427547455,0.9408888816833496,0.001
0.16225172579288483,0.9539999961853027,0.21948744356632233,0.9408888816833496,0.001
0.17993751168251038,0.9559999704360962,0.21950663626194,0.9408888816833496,0.001
0.18006804585456848,0.949999988079071,0.21957765519618988,0.9411110877990723,0.001
0.18385295569896698,0.949999988079071,0.21958743035793304,0.9411110877990723,0.001
0.16956911981105804,0.9559999704360962,0.21960029006004333,0.9411110877990723,0.001
0.16433876752853394,0.9520000219345093,0.2196284532546997,0.9411110877990723,0.001
0.18009470403194427,0.9480000138282776,0.2196173369884491,0.9411110877990723,0.001
0.18484139442443848,0.9459999799728394,0.21956616640090942,0.9411110877990723,0.001
0.18271507322788239,0.949999988079071,0.21959829330444336,0.9411110877990723,0.001
0.18419495224952698,0.9480000138282776,0.21954484283924103,0.9411110877990723,0.001
0.180210679769516,0.9440000057220459,0.21943499147891998,0.9411110877990723,0.001
0.17518167197704315,0.9559999704360962,0.21944478154182434,0.9411110877990723,0.001
0.17152069509029388,0.9520000219345093,0.2194126695394516,0.9413333535194397,0.001
0.15945394337177277,0.9520000219345093,0.2193993628025055,0.9413333535194397,0.001
0.18500353395938873,0.9480000138282776,0.21933068335056305,0.9413333535194397,0.001
0.16918589174747467,0.9520000219345093,0.2193051129579544,0.9413333535194397,0.001
0.1742561012506485,0.9539999961853027,0.21932563185691833,0.9413333535194397,0.001
0.18365176022052765,0.9480000138282776,0.21932795643806458,0.9413333535194397,0.001
0.18005163967609406,0.9419999718666077,0.21934065222740173,0.9413333535194397,0.001
0.16956129670143127,0.9459999799728394,0.21931055188179016,0.9413333535194397,0.001
0.18878208100795746,0.949999988079071,0.21932737529277802,0.9413333535194397,0.001
0.1726682484149933,0.949999988079071,0.21932931244373322,0.9413333535194397,0.001
0.17776551842689514,0.949999988079071,0.21938058733940125,0.9413333535194397,0.001
0.17838042974472046,0.9520000219345093,0.21938428282737732,0.9413333535194397,0.001
0.17451344430446625,0.9440000057220459,0.2194036990404129,0.9413333535194397,0.001
0.17840634286403656,0.9399999976158142,0.2194046825170517,0.9413333535194397,0.001
0.18226903676986694,0.9520000219345093,0.21940700709819794,0.9413333535194397,0.001
0.1767815202474594,0.9520000219345093,0.21940836310386658,0.9413333535194397,0.001
0.18849363923072815,0.9459999799728394,0.2195005863904953,0.9411110877990723,0.001
0.17164328694343567,0.9539999961853027,0.21949230134487152,0.9411110877990723,0.001
0.18188481032848358,0.949999988079071,0.21949787437915802,0.9411110877990723,0.001
0.17773470282554626,0.9520000219345093,0.21949683129787445,0.9411110877990723,0.001
0.18505023419857025,0.949999988079071,0.21947333216667175,0.9411110877990723,0.001
0.19063715636730194,0.9520000219345093,0.21949689090251923,0.9411110877990723,0.001
0.1651923656463623,0.949999988079071,0.2194249927997589,0.9411110877990723,0.001
0.16210830211639404,0.9520000219345093,0.21940618753433228,0.9411110877990723,0.001
0.1996990293264389,0.949999988079071,0.21941271424293518,0.9411110877990723,0.001
0.1606561839580536,0.9520000219345093,0.21938250958919525,0.9411110877990723,0.001
0.182729572057724,0.9480000138282776,0.2193954735994339,0.9411110877990723,0.001
0.1762743890285492,0.949999988079071,0.21939995884895325,0.9411110877990723,0.001
0.1814689189195633,0.9459999799728394,0.21939516067504883,0.9411110877990723,0.001
0.16649821400642395,0.949999988079071,0.21939431130886078,0.9411110877990723,0.001
0.18791259825229645,0.9539999961853027,0.21936243772506714,0.9411110877990723,0.001
0.1740642786026001,0.9520000219345093,0.21935991942882538,0.9411110877990723,0.001
0.17212507128715515,0.9520000219345093,0.21933972835540771,0.9411110877990723,0.001
0.1837812066078186,0.949999988079071,0.21933144330978394,0.9411110877990723,0.001
0.17407920956611633,0.9520000219345093,0.2193315178155899,0.9411110877990723,0.001
0.17664018273353577,0.9480000138282776,0.219328373670578,0.9411110877990723,0.001
0.18467870354652405,0.949999988079071,0.21928353607654572,0.9411110877990723,0.001
0.1693623661994934,0.9480000138282776,0.21933545172214508,0.9411110877990723,0.001
0.17514629662036896,0.949999988079071,0.21934214234352112,0.9411110877990723,0.001
0.1710614413022995,0.9520000219345093,0.21936075389385223,0.9411110877990723,0.001
0.17586861550807953,0.9520000219345093,0.2193053662776947,0.9411110877990723,0.001
0.18758583068847656,0.949999988079071,0.21929137408733368,0.9411110877990723,0.001
0.18182599544525146,0.9459999799728394,0.2192569077014923,0.9413333535194397,0.001
0.16633617877960205,0.9559999704360962,0.21926257014274597,0.9413333535194397,0.001
0.17067444324493408,0.9520000219345093,0.21923260390758514,0.9411110877990723,0.001
0.1716320663690567,0.9520000219345093,0.21922528743743896,0.9411110877990723,0.001
0.1880495399236679,0.9480000138282776,0.2192494422197342,0.9411110877990723,0.001
0.16298042237758636,0.9539999961853027,0.21928733587265015,0.9411110877990723,0.001
0.17486163973808289,0.949999988079071,0.21928267180919647,0.9411110877990723,0.001
0.17908184230327606,0.9480000138282776,0.2192506194114685,0.9411110877990723,0.001
0.16091953217983246,0.9580000042915344,0.2192421406507492,0.9411110877990723,0.001
0.17797686159610748,0.9539999961853027,0.21917913854122162,0.9411110877990723,0.001
0.16599306464195251,0.9520000219345093,0.21915723383426666,0.9411110877990723,0.001
0.18306714296340942,0.9520000219345093,0.2190922200679779,0.9411110877990723,0.001
0.16441619396209717,0.9539999961853027,0.2191108912229538,0.9411110877990723,0.001
0.18499523401260376,0.9419999718666077,0.21910306811332703,0.9411110877990723,0.001
0.16652102768421173,0.949999988079071,0.21905085444450378,0.9411110877990723,0.001
0.1657729595899582,0.949999988079071,0.21905933320522308,0.9411110877990723,0.001
0.16922859847545624,0.9440000057220459,0.2190379798412323,0.9411110877990723,0.001
0.17013612389564514,0.9539999961853027,0.21905730664730072,0.9413333535194397,0.001
0.17604316771030426,0.9559999704360962,0.21904532611370087,0.9411110877990723,0.001
0.17601732909679413,0.949999988079071,0.21905270218849182,0.9411110877990723,0.001
0.15608635544776917,0.9559999704360962,0.21909408271312714,0.9411110877990723,0.001
0.18529728055000305,0.9539999961853027,0.2190457135438919,0.9411110877990723,0.001
0.17605680227279663,0.9520000219345093,0.2190670371055603,0.9411110877990723,0.001
0.1821066290140152,0.9559999704360962,0.2190842181444168,0.9411110877990723,0.001
0.17167696356773376,0.9539999961853027,0.2190992385149002,0.9411110877990723,0.001
0.17424601316452026,0.9539999961853027,0.21917369961738586,0.9411110877990723,0.001
0.17435982823371887,0.9440000057220459,0.21916979551315308,0.9411110877990723,0.001
0.18636614084243774,0.9440000057220459,0.21921603381633759,0.9413333535194397,0.001
0.17695271968841553,0.9559999704360962,0.21918509900569916,0.9413333535194397,0.001
0.1749337613582611,0.949999988079071,0.21921245753765106,0.9413333535194397,0.001
0.16738533973693848,0.9520000219345093,0.21920788288116455,0.9413333535194397,0.001
0.17513956129550934,0.9480000138282776,0.21916191279888153,0.9413333535194397,0.001
0.16522440314292908,0.949999988079071,0.21919149160385132,0.9413333535194397,0.001
0.1891031116247177,0.9520000219345093,0.21915854513645172,0.9413333535194397,0.001
0.17207752168178558,0.949999988079071,0.21914438903331757,0.9413333535194397,0.001
0.19608159363269806,0.949999988079071,0.21906425058841705,0.9413333535194397,0.001
0.1793324053287506,0.9539999961853027,0.21902243793010712,0.9413333535194397,0.001
0.1614859700202942,0.9539999961853027,0.21898233890533447,0.9413333535194397,0.001
0.17892804741859436,0.9459999799728394,0.21901924908161163,0.9413333535194397,0.001
0.17916886508464813,0.949999988079071,0.21894042193889618,0.9413333535194397,0.001
0.18306852877140045,0.9440000057220459,0.21889200806617737,0.9413333535194397,0.001
0.162338986992836,0.9520000219345093,0.2188275158405304,0.9415555596351624,0.001
0.1725483536720276,0.9520000219345093,0.21876615285873413,0.9415555596351624,0.001
0.16416984796524048,0.9559999704360962,0.2187647819519043,0.9415555596351624,0.001
0.16964168846607208,0.9539999961853027,0.21877697110176086,0.9415555596351624,0.001
0.1713392436504364,0.9520000219345093,0.2187783420085907,0.9415555596351624,0.001
0.18532907962799072,0.9480000138282776,0.21883654594421387,0.9415555596351624,0.001
0.17619353532791138,0.9559999704360962,0.21880808472633362,0.9415555596351624,0.001
0.16841018199920654,0.9580000042915344,0.218832865357399,0.9415555596351624,0.001
0.17597076296806335,0.9480000138282776,0.21883459389209747,0.9413333535194397,0.001
0.1757541000843048,0.9459999799728394,0.21883293986320496,0.9413333535194397,0.001
0.1676812618970871,0.9539999961853027,0.21883010864257812,0.9413333535194397,0.001
0.1744319647550583,0.9539999961853027,0.21883396804332733,0.9413333535194397,0.001
0.16589471697807312,0.9520000219345093,0.218881756067276,0.9413333535194397,0.001
0.16898725926876068,0.9480000138282776,0.21886853873729706,0.9413333535194397,0.001
0.17719414830207825,0.949999988079071,0.21891148388385773,0.9413333535194397,0.001
0.17590980231761932,0.9480000138282776,0.21883225440979004,0.9413333535194397,0.001
0.18181495368480682,0.9480000138282776,0.21881318092346191,0.9413333535194397,0.001
0.17825081944465637,0.9440000057220459,0.2187994420528412,0.9413333535194397,0.001
0.1859397292137146,0.9459999799728394,0.21876926720142365,0.9413333535194397,0.001
0.1733444780111313,0.949999988079071,0.21871595084667206,0.9413333535194397,0.001
0.17594526708126068,0.9520000219345093,0.2186991572380066,0.9413333535194397,0.001
0.18350233137607574,0.9580000042915344,0.2187015861272812,0.9413333535194397,0.001
0.176176056265831,0.9480000138282776,0.21868206560611725,0.9413333535194397,0.001
0.17308153212070465,0.9539999961853027,0.21863538026809692,0.9415555596351624,0.001
0.17102137207984924,0.9520000219345093,0.2185823768377304,0.9415555596351624,0.001
0.16877585649490356,0.949999988079071,0.2185719609260559,0.941777765750885,0.001
0.17408765852451324,0.9419999718666077,0.21857158839702606,0.941777765750885,0.001
0.1776239573955536,0.949999988079071,0.21850481629371643,0.941777765750885,0.001
0.1909102201461792,0.9539999961853027,0.21848998963832855,0.941777765750885,0.001
0.17284125089645386,0.9520000219345093,0.21846775710582733,0.941777765750885,0.001
0.16819827258586884,0.9559999704360962,0.21845003962516785,0.941777765750885,0.001
0.17026905715465546,0.9580000042915344,0.2184283584356308,0.941777765750885,0.001
0.18352212011814117,0.9480000138282776,0.21842578053474426,0.941777765750885,0.001
0.16551387310028076,0.9520000219345093,0.2184247225522995,0.9415555596351624,0.001
0.1814541518688202,0.9480000138282776,0.218374103307724,0.9415555596351624,0.001
0.17480142414569855,0.9539999961853027,0.21839702129364014,0.9415555596351624,0.001
0.17908445000648499,0.9440000057220459,0.2183522880077362,0.941777765750885,0.001
0.18679369986057281,0.949999988079071,0.21832215785980225,0.941777765750885,0.001
0.1767648309469223,0.9480000138282776,0.21829082071781158,0.9415555596351624,0.001
0.16820645332336426,0.9440000057220459,0.21827755868434906,0.9419999718666077,0.001
0.15562818944454193,0.9539999961853027,0.21821372210979462,0.9419999718666077,0.001
0.1813707947731018,0.9459999799728394,0.21822379529476166,0.941777765750885,0.001
0.17487762868404388,0.949999988079071,0.2182081937789917,0.941777765750885,0.001
0.16673794388771057,0.9539999961853027,0.21816809475421906,0.941777765750885,0.001
