loss,accuracy,val_loss,val_accuracy,lr
0.6267601251602173,0.8159999847412109,1.5078729391098022,0.4277777671813965,0.001
0.2624902129173279,0.9359999895095825,1.4739768505096436,0.3548888862133026,0.001
0.21550951898097992,0.9380000233650208,1.452457070350647,0.5757777690887451,0.001
0.19042399525642395,0.949999988079071,1.5440547466278076,0.35288888216018677,0.001
0.19150909781455994,0.9440000057220459,1.5886025428771973,0.02199999988079071,0.001
0.17080633342266083,0.9520000219345093,1.5500831604003906,0.3135555684566498,0.001
0.1587844043970108,0.949999988079071,1.6160376071929932,0.0271111112087965,0.001
0.14383487403392792,0.9599999785423279,1.6083647012710571,0.16066665947437286,0.001
0.12574101984500885,0.9620000123977661,1.5508390665054321,0.21044445037841797,0.001
0.136954665184021,0.9599999785423279,1.6575100421905518,0.03866666555404663,0.001
0.11313900351524353,0.9700000286102295,1.5898292064666748,0.02755555510520935,0.001
0.11043567955493927,0.9660000205039978,1.6236850023269653,0.02133333310484886,0.001
0.09925014525651932,0.9739999771118164,1.617041826248169,0.020666666328907013,0.001
0.09951523691415787,0.9739999771118164,1.6088147163391113,0.052444443106651306,0.001
0.09624608606100082,0.972000002861023,1.5826983451843262,0.03177777677774429,0.001
0.10792779177427292,0.9700000286102295,1.506198763847351,0.27266666293144226,0.001
0.09876646846532822,0.9639999866485596,1.4701896905899048,0.14933332800865173,0.001
0.08799940347671509,0.9779999852180481,1.2388168573379517,0.4082222282886505,0.001
0.07760206609964371,0.9779999852180481,1.2073651552200317,0.3757777810096741,0.001
0.07243648171424866,0.984000027179718,1.128359317779541,0.5397777557373047,0.001
0.07220512628555298,0.9819999933242798,1.2205369472503662,0.3668888807296753,0.001
0.05765409767627716,0.984000027179718,1.3505817651748657,0.1464444398880005,0.001
0.05753878131508827,0.9819999933242798,1.1275615692138672,0.3897777795791626,0.001
0.06714774668216705,0.9779999852180481,0.6249474287033081,0.8782222270965576,0.001
0.07523157447576523,0.9679999947547913,0.4777710437774658,0.8980000019073486,0.001
0.08436570316553116,0.9800000190734863,0.4982599914073944,0.8159999847412109,0.001
0.07349812239408493,0.9800000190734863,0.6658622622489929,0.8035555481910706,0.001
0.06147139146924019,0.9800000190734863,0.5667207837104797,0.8624444603919983,0.001
0.054904211312532425,0.9779999852180481,0.6260517239570618,0.7519999742507935,0.001
0.04943619668483734,0.9860000014305115,0.8922023773193359,0.6973333358764648,0.001
0.053600795567035675,0.9860000014305115,0.503055214881897,0.9079999923706055,0.001
0.043549153953790665,0.9879999756813049,0.3299749791622162,0.9179999828338623,0.001
0.0321391336619854,0.9919999837875366,0.40343204140663147,0.8668888807296753,0.001
0.02872973494231701,0.9919999837875366,0.35795536637306213,0.921999990940094,0.001
0.036971475929021835,0.9879999756813049,0.3732103705406189,0.9224444627761841,0.001
0.024493664503097534,0.9919999837875366,0.3874005675315857,0.886888861656189,0.001
0.029781650751829147,0.9919999837875366,0.30592870712280273,0.9115555286407471,0.001
0.025076575577259064,0.9940000176429749,0.3190506100654602,0.9268888831138611,0.001
0.034677498042583466,0.9900000095367432,0.3700157403945923,0.8613333106040955,0.001
0.022359536960721016,0.9940000176429749,0.33565646409988403,0.910444438457489,0.001
0.017404405400156975,0.9959999918937683,0.3684896230697632,0.9211111068725586,0.001
0.04026911407709122,0.9879999756813049,0.32739245891571045,0.9162222146987915,0.001
0.03877533972263336,0.9860000014305115,0.35855531692504883,0.8993333578109741,0.001
0.03875834494829178,0.9900000095367432,0.3200097680091858,0.9171110987663269,0.001
0.03274265676736832,0.9919999837875366,0.36692965030670166,0.9208889007568359,0.001
0.031031562015414238,0.9919999837875366,0.42166534066200256,0.879111111164093,0.001
0.05755932629108429,0.9860000014305115,1.1313953399658203,0.6615555286407471,0.001
0.06509300321340561,0.984000027179718,0.7825016975402832,0.8657777905464172,0.001
0.10993778705596924,0.9660000205039978,7.26797342300415,0.2262222170829773,0.001
0.06905443966388702,0.9760000109672546,3.6888914108276367,0.16777777671813965,0.001
0.047517936676740646,0.9879999756813049,0.6182065606117249,0.9275555610656738,0.001
0.05687457323074341,0.984000027179718,0.34658631682395935,0.9224444627761841,0.001
0.04499233886599541,0.9860000014305115,0.36821985244750977,0.9191111326217651,0.001
0.03389653563499451,0.9879999756813049,0.3630332946777344,0.9286666512489319,0.001
0.02819698676466942,0.9919999837875366,0.3547476828098297,0.940666675567627,0.001
0.011075671762228012,1.0,0.34634530544281006,0.9399999976158142,0.001
0.014662309549748898,0.9959999918937683,0.35817739367485046,0.9328888654708862,0.001
0.02712864615023136,0.9919999837875366,0.40719544887542725,0.9413333535194397,0.001
0.019890151917934418,0.9940000176429749,0.34570351243019104,0.9284444451332092,0.001
0.028206009417772293,0.9959999918937683,0.9645657539367676,0.7239999771118164,0.001
0.019451845437288284,0.9980000257492065,0.39959245920181274,0.9133333563804626,0.001
0.014767395332455635,0.9959999918937683,0.37227192521095276,0.9380000233650208,0.001
0.02231009490787983,0.9919999837875366,0.38071492314338684,0.9128888845443726,0.001
0.023853713646531105,0.9900000095367432,0.347368448972702,0.9177777767181396,0.001
0.02751259133219719,0.9900000095367432,0.47687679529190063,0.9086666703224182,0.001
0.020939849317073822,0.9919999837875366,0.6608763337135315,0.8115555644035339,0.001
0.017331372946500778,0.9959999918937683,0.4035649001598358,0.9062222242355347,0.001
0.018124975264072418,0.9940000176429749,0.36212506890296936,0.9115555286407471,0.001
0.016616661101579666,0.9959999918937683,0.405460000038147,0.9122222065925598,0.001
0.013854024931788445,0.9980000257492065,0.49520012736320496,0.937333345413208,0.001
0.008013006299734116,0.9980000257492065,0.5579124689102173,0.8924444317817688,0.001
0.014941037632524967,0.9959999918937683,0.44909924268722534,0.9006666541099548,0.001
0.010437321849167347,1.0,0.4839172065258026,0.937333345413208,0.001
0.014215652830898762,0.9980000257492065,0.4609529674053192,0.9371111392974854,0.001
0.005063110962510109,1.0,0.46315690875053406,0.9391111135482788,0.001
0.003329241182655096,1.0,0.4588697850704193,0.9337777495384216,0.001
0.0028211043681949377,1.0,0.42176923155784607,0.9273333549499512,0.001
0.0014344468945637345,1.0,0.4009295701980591,0.9282222390174866,0.001
0.0014343543443828821,1.0,0.3969900608062744,0.9222221970558167,0.001
0.001721378997899592,1.0,0.3955284357070923,0.9284444451332092,0.001
0.0012146544177085161,1.0,0.39556893706321716,0.9315555691719055,0.001
0.0010874599684029818,1.0,0.39514005184173584,0.9295555353164673,0.001
0.001101544825360179,1.0,0.3902948200702667,0.9313333630561829,0.001
0.0007127807475626469,1.0,0.3894215226173401,0.9282222390174866,0.001
0.0007386275683529675,1.0,0.390934020280838,0.929111123085022,0.001
0.0010102650849148631,1.0,0.3941812515258789,0.93022221326828,0.001
0.0005712757701985538,1.0,0.3903749883174896,0.9322222471237183,0.001
0.0008014314225874841,1.0,0.3932513892650604,0.9346666932106018,0.001
0.0005971359787508845,1.0,0.39726579189300537,0.9328888654708862,0.001
0.00041221710853278637,1.0,0.4018693268299103,0.9315555691719055,0.001
0.00045788646093569696,1.0,0.40707796812057495,0.9315555691719055,0.001
0.000513217702973634,1.0,0.4109794497489929,0.9306666851043701,0.001
0.0005469659809023142,1.0,0.41084977984428406,0.9315555691719055,0.001
0.00036638480378314853,1.0,0.4111163914203644,0.9317777752876282,0.001
0.00037009859806858003,1.0,0.4116520285606384,0.9319999814033508,0.001
0.000381075544282794,1.0,0.41377919912338257,0.9319999814033508,0.001
0.0007871178677305579,1.0,0.41418567299842834,0.9340000152587891,0.001
0.00040017240098677576,1.0,0.41545119881629944,0.9348888993263245,0.001
0.00032178324181586504,1.0,0.41626325249671936,0.9326666593551636,0.001
0.0005330987041816115,1.0,0.418012797832489,0.9333333373069763,0.001
0.000350525020621717,1.0,0.41975656151771545,0.9348888993263245,0.001
0.000970360531937331,1.0,0.4219592809677124,0.9337777495384216,0.001
0.0009495062986388803,1.0,0.42863860726356506,0.9224444627761841,0.001
0.0009741183021105826,1.0,0.396848201751709,0.937333345413208,0.001
0.0005535238306038082,1.0,0.39173534512519836,0.9359999895095825,0.001
0.0010064102243632078,1.0,0.4057660698890686,0.9348888993263245,0.001
0.000528378935996443,1.0,0.42628780007362366,0.9331111311912537,0.001
0.00048112490912899375,1.0,0.43601781129837036,0.9353333115577698,0.001
0.00066645338665694,1.0,0.44078758358955383,0.9364444613456726,0.001
0.000544469163287431,1.0,0.43665820360183716,0.9359999895095825,0.001
0.0003063477633986622,1.0,0.43232211470603943,0.9359999895095825,0.001
0.00036288361297920346,1.0,0.4335120618343353,0.9346666932106018,0.001
0.0002825274132192135,1.0,0.4342474639415741,0.9357777833938599,0.001
0.0002881399414036423,1.0,0.435158908367157,0.9366666674613953,0.001
0.0004816672299057245,1.0,0.4335704743862152,0.9359999895095825,0.001
0.00026277717552147806,1.0,0.4321618378162384,0.9348888993263245,0.001
0.0002602768363431096,1.0,0.43233445286750793,0.9340000152587891,0.001
0.00048631482059136033,1.0,0.43282434344291687,0.9331111311912537,0.001
0.0003612099390011281,1.0,0.4301413297653198,0.9282222390174866,0.001
0.00024171256518457085,1.0,0.4249092936515808,0.9344444274902344,0.001
0.00022932382125873119,1.0,0.42726022005081177,0.9359999895095825,0.001
0.00023971220070961863,1.0,0.43017515540122986,0.9359999895095825,0.001
0.0002897238009609282,1.0,0.42948201298713684,0.9317777752876282,0.001
0.000211455044336617,1.0,0.43036016821861267,0.9300000071525574,0.001
0.0006140313926152885,1.0,0.4334150552749634,0.9346666932106018,0.001
0.00026937550865113735,1.0,0.43797123432159424,0.9351111054420471,0.001
0.00018741839448921382,1.0,0.43991491198539734,0.9353333115577698,0.001
0.00017278065206483006,1.0,0.4426427483558655,0.9355555772781372,0.001
0.00021902188018430024,1.0,0.44512709975242615,0.9351111054420471,0.001
0.00016011824482120574,1.0,0.4474172592163086,0.9353333115577698,0.001
0.0001759885490173474,1.0,0.4481671154499054,0.9353333115577698,0.001
0.0003737999068107456,1.0,0.45468124747276306,0.9359999895095825,0.001
0.0002665584906935692,1.0,0.4573255181312561,0.9348888993263245,0.001
0.0001762564352247864,1.0,0.4569864869117737,0.9344444274902344,0.001
0.00022476891172118485,1.0,0.45620736479759216,0.9353333115577698,0.001
0.00020461496023926884,1.0,0.45742931962013245,0.9355555772781372,0.001
0.0001819535536924377,1.0,0.45784422755241394,0.9357777833938599,0.001
0.00014149502385407686,1.0,0.458252489566803,0.9357777833938599,0.001
0.00017111287161242217,1.0,0.458030641078949,0.9355555772781372,0.001
0.00018832636123988777,1.0,0.45784473419189453,0.9362221956253052,0.001
0.00015069592336658388,1.0,0.4583582282066345,0.9357777833938599,0.001
0.0001742900931276381,1.0,0.4585758447647095,0.9353333115577698,0.001
0.00017746280354913324,1.0,0.45686978101730347,0.9359999895095825,0.001
0.000162554977578111,1.0,0.4543393850326538,0.9344444274902344,0.001
0.00011949190229643136,1.0,0.4546441435813904,0.9344444274902344,0.001
0.000154557972564362,1.0,0.45493584871292114,0.9351111054420471,0.001
0.00017476243374403566,1.0,0.4552289545536041,0.9353333115577698,0.001
0.00027044391026720405,1.0,0.45347246527671814,0.9355555772781372,0.001
0.00014399552310351282,1.0,0.4536628723144531,0.9357777833938599,0.001
0.00011821227235486731,1.0,0.45369696617126465,0.9355555772781372,0.001
0.0001071616425178945,1.0,0.454752653837204,0.9359999895095825,0.001
0.000185876022442244,1.0,0.4553649127483368,0.9355555772781372,0.001
0.00014256656868383288,1.0,0.4570208191871643,0.9357777833938599,0.001
0.0001330796512775123,1.0,0.45788830518722534,0.9355555772781372,0.001
0.0001184011489385739,1.0,0.45944440364837646,0.9359999895095825,0.001
0.00019750595674850047,1.0,0.4608098864555359,0.9357777833938599,0.001
0.00020280182070564479,1.0,0.4621489942073822,0.933555543422699,0.001
9.075456910068169e-05,1.0,0.46314799785614014,0.9333333373069763,0.001
0.00026576899108476937,1.0,0.4605556130409241,0.9348888993263245,0.001
0.00011833010648842901,1.0,0.45975998044013977,0.9359999895095825,0.001
0.0002494873770046979,1.0,0.4592972993850708,0.9331111311912537,0.001
0.00012234972382429987,1.0,0.46035632491111755,0.9295555353164673,0.001
0.00017752277199178934,1.0,0.4595244824886322,0.9328888654708862,0.001
0.00012086623610230163,1.0,0.46259185671806335,0.9362221956253052,0.001
8.996324322652072e-05,1.0,0.4649512767791748,0.9362221956253052,0.001
0.00032991167972795665,1.0,0.46945327520370483,0.9359999895095825,0.001
0.0001331596140516922,1.0,0.4733361601829529,0.9353333115577698,0.001
0.00011236713908147067,1.0,0.47335904836654663,0.9340000152587891,0.001
0.00020246878557372838,1.0,0.47326692938804626,0.9340000152587891,0.001
8.481041732011363e-05,1.0,0.47196999192237854,0.9328888654708862,0.001
0.00010731296060839668,1.0,0.47126659750938416,0.9340000152587891,0.001
9.874759416561574e-05,1.0,0.4708138704299927,0.9348888993263245,0.001
0.00015902082668617368,1.0,0.47017398476600647,0.9351111054420471,0.001
0.00015243269444908947,1.0,0.4680194854736328,0.9355555772781372,0.001
0.00011093065404566005,1.0,0.4666493535041809,0.9362221956253052,0.001
0.00011013579205609858,1.0,0.46635347604751587,0.9355555772781372,0.001
9.908669017022476e-05,1.0,0.46793338656425476,0.9353333115577698,0.001
9.478378342464566e-05,1.0,0.46976056694984436,0.9353333115577698,0.001
0.000175150329596363,1.0,0.46825310587882996,0.9275555610656738,0.001
0.0001233134971698746,1.0,0.4684014618396759,0.9275555610656738,0.001
9.127132943831384e-05,1.0,0.468017041683197,0.9342222213745117,0.001
0.00010000883048633114,1.0,0.47163769602775574,0.9357777833938599,0.001
7.84337316872552e-05,1.0,0.47444695234298706,0.9366666674613953,0.001
0.00010794356785481796,1.0,0.47603026032447815,0.9368888735771179,0.001
6.685124390060082e-05,1.0,0.4765661954879761,0.9357777833938599,0.001
8.990547939902171e-05,1.0,0.4768441319465637,0.9353333115577698,0.001
0.00010771965025924146,1.0,0.475548654794693,0.9355555772781372,0.001
9.299291559727862e-05,1.0,0.4741370379924774,0.9348888993263245,0.001
0.00010130715963896364,1.0,0.4732722043991089,0.9328888654708862,0.001
8.002836693776771e-05,1.0,0.4728984832763672,0.9342222213745117,0.001
6.25342654529959e-05,1.0,0.47384315729141235,0.9351111054420471,0.001
0.00011658428411465138,1.0,0.47454914450645447,0.9353333115577698,0.001
0.00010306793410563841,1.0,0.47833073139190674,0.9355555772781372,0.001
5.683988274540752e-05,1.0,0.4807907044887543,0.9351111054420471,0.001
9.605957893654704e-05,1.0,0.48140662908554077,0.9355555772781372,0.001
0.00010480081255082041,1.0,0.4791301488876343,0.9353333115577698,0.001
0.00012139445607317612,1.0,0.47570595145225525,0.9353333115577698,0.001
0.00010647036106092855,1.0,0.4730328917503357,0.9353333115577698,0.001
8.550138591090217e-05,1.0,0.474443256855011,0.9355555772781372,0.001
5.256667282083072e-05,1.0,0.47657474875450134,0.9366666674613953,0.001
8.594868995714933e-05,1.0,0.47936907410621643,0.9366666674613953,0.001
0.00010014946747105569,1.0,0.47924309968948364,0.9355555772781372,0.001
8.989148773252964e-05,1.0,0.47957947850227356,0.9353333115577698,0.001
0.00010765752813313156,1.0,0.47825872898101807,0.9311110973358154,0.001
8.303049253299832e-05,1.0,0.47861185669898987,0.93022221326828,0.001
7.694679516134784e-05,1.0,0.4791712760925293,0.9315555691719055,0.001
9.508660150459036e-05,1.0,0.4765781760215759,0.9344444274902344,0.001
8.302123751491308e-05,1.0,0.47661733627319336,0.9351111054420471,0.001
7.034682494122535e-05,1.0,0.4781976342201233,0.9359999895095825,0.001
6.237025809241459e-05,1.0,0.47913840413093567,0.9359999895095825,0.001
6.99507727404125e-05,1.0,0.4802556335926056,0.9353333115577698,0.001
0.00018565196660347283,1.0,0.47669216990470886,0.9322222471237183,0.001
6.931254756636918e-05,1.0,0.4745390713214874,0.9322222471237183,0.001
0.0001462487707613036,1.0,0.4753911793231964,0.9344444274902344,0.001
7.881994679337367e-05,1.0,0.47800639271736145,0.9346666932106018,0.001
0.00010026780364569277,1.0,0.47750064730644226,0.9357777833938599,0.001
7.894595910329372e-05,1.0,0.4782717525959015,0.9355555772781372,0.001
5.716801024391316e-05,1.0,0.4802890717983246,0.9353333115577698,0.001
6.129371467977762e-05,1.0,0.4822966158390045,0.9353333115577698,0.001
7.504285895265639e-05,1.0,0.4845908284187317,0.9351111054420471,0.001
8.259395690402016e-05,1.0,0.48493272066116333,0.9348888993263245,0.0005
4.822255505132489e-05,1.0,0.4856412708759308,0.9348888993263245,0.0005
0.00012369014439173043,1.0,0.4864141643047333,0.9346666932106018,0.0005
6.982563354540616e-05,1.0,0.4872169494628906,0.9346666932106018,0.0005
6.197654874995351e-05,1.0,0.4876665472984314,0.9351111054420471,0.0005
5.620906813419424e-05,1.0,0.4882783889770508,0.9351111054420471,0.0005
5.777521073468961e-05,1.0,0.48910579085350037,0.9353333115577698,0.0005
4.385776264825836e-05,1.0,0.48928868770599365,0.9351111054420471,0.0005
6.144709914224222e-05,1.0,0.4902181029319763,0.9355555772781372,0.0005
6.147049134597182e-05,1.0,0.4908267557621002,0.9353333115577698,0.0005
7.831859693396837e-05,1.0,0.4914771616458893,0.9353333115577698,0.0005
7.548715802840889e-05,1.0,0.49217426776885986,0.9353333115577698,0.0005
5.3897645557299256e-05,1.0,0.4916095435619354,0.9351111054420471,0.0005
6.757523806300014e-05,1.0,0.4921392798423767,0.9351111054420471,0.0005
0.00011877770884893835,1.0,0.4918540120124817,0.9348888993263245,0.0005
4.3009255023207515e-05,1.0,0.49132227897644043,0.933555543422699,0.0005
6.633052544202656e-05,1.0,0.49124881625175476,0.933555543422699,0.0005
6.629595009144396e-05,1.0,0.4906909763813019,0.9346666932106018,0.0005
4.7922458179527894e-05,1.0,0.4906765818595886,0.9348888993263245,0.0005
7.40285831852816e-05,1.0,0.4896990656852722,0.9348888993263245,0.0005
6.068977018003352e-05,1.0,0.4887375831604004,0.9344444274902344,0.0005
7.100764196366072e-05,1.0,0.48870372772216797,0.9348888993263245,0.0005
4.353897020337172e-05,1.0,0.4890001714229584,0.9348888993263245,0.0005
4.266070027370006e-05,1.0,0.48985791206359863,0.9351111054420471,0.0005
5.5963308113859966e-05,1.0,0.4906441569328308,0.9353333115577698,0.0005
6.330270116450265e-05,1.0,0.4918522238731384,0.9348888993263245,0.0005
0.00013894838048145175,1.0,0.4929295778274536,0.9348888993263245,0.0005
4.9251462769461796e-05,1.0,0.4920231103897095,0.9351111054420471,0.0005
4.4799595343647525e-05,1.0,0.4924777150154114,0.9351111054420471,0.0005
5.447331568575464e-05,1.0,0.4928012192249298,0.9353333115577698,0.0005
7.998536602826789e-05,1.0,0.4915221333503723,0.9357777833938599,0.0005
4.506024924921803e-05,1.0,0.4899623394012451,0.9357777833938599,0.0005
6.206922262208536e-05,1.0,0.48996061086654663,0.9357777833938599,0.0005
7.163827831391245e-05,1.0,0.49026936292648315,0.9359999895095825,0.0005
6.644093082286417e-05,1.0,0.49010270833969116,0.9355555772781372,0.0005
6.635889440076426e-05,1.0,0.4901454448699951,0.9353333115577698,0.0005
4.9124471843242645e-05,1.0,0.4903176426887512,0.9351111054420471,0.0005
3.6324414395494387e-05,1.0,0.49061399698257446,0.9353333115577698,0.0005
4.7320059820776805e-05,1.0,0.49043408036231995,0.9355555772781372,0.0005
3.7010271626058966e-05,1.0,0.4910992383956909,0.9355555772781372,0.0005
5.784469976788387e-05,1.0,0.4901774525642395,0.9351111054420471,0.0005
3.613114313338883e-05,1.0,0.49035030603408813,0.9351111054420471,0.0005
5.866112405783497e-05,1.0,0.49114328622817993,0.9351111054420471,0.0005
4.6467834181385115e-05,1.0,0.4929153621196747,0.9348888993263245,0.0005
4.79499067296274e-05,1.0,0.49445876479148865,0.9353333115577698,0.0005
3.7562145735137165e-05,1.0,0.49502724409103394,0.9353333115577698,0.0005
4.233695290167816e-05,1.0,0.49489685893058777,0.9353333115577698,0.0005
7.752128294669092e-05,1.0,0.4949164092540741,0.9348888993263245,0.0005
6.882999878143892e-05,1.0,0.49462392926216125,0.9344444274902344,0.0005
2.8175374609418213e-05,1.0,0.49381184577941895,0.9346666932106018,0.0005
3.6903835280099884e-05,1.0,0.49401259422302246,0.9346666932106018,0.00025
3.759395258384757e-05,1.0,0.4942203164100647,0.9344444274902344,0.00025
5.437949948827736e-05,1.0,0.49438074231147766,0.9344444274902344,0.00025
6.021772060194053e-05,1.0,0.49454307556152344,0.9344444274902344,0.00025
6.990280235186219e-05,1.0,0.49320903420448303,0.9346666932106018,0.00025
7.603393169119954e-05,1.0,0.4924614727497101,0.9346666932106018,0.00025
3.3823664125520736e-05,1.0,0.49174565076828003,0.9344444274902344,0.00025
3.919480150216259e-05,1.0,0.4922163486480713,0.9346666932106018,0.00025
4.059466300532222e-05,1.0,0.4926646053791046,0.9355555772781372,0.00025
5.623761535389349e-05,1.0,0.49324944615364075,0.9353333115577698,0.00025
5.8602796343620867e-05,1.0,0.49391716718673706,0.9353333115577698,0.00025
5.5239990615518764e-05,1.0,0.49315908551216125,0.9353333115577698,0.00025
6.0202000895515084e-05,1.0,0.4932202100753784,0.9355555772781372,0.00025
7.266044849529862e-05,1.0,0.49314236640930176,0.9355555772781372,0.00025
5.411889651441015e-05,1.0,0.49346473813056946,0.9355555772781372,0.00025
3.874636604450643e-05,1.0,0.49376338720321655,0.9351111054420471,0.00025
6.033756289980374e-05,1.0,0.49396461248397827,0.9353333115577698,0.00025
5.11075668327976e-05,1.0,0.49360963702201843,0.9355555772781372,0.00025
5.2259143558330834e-05,1.0,0.4936947822570801,0.9355555772781372,0.00025
5.7877474318956956e-05,1.0,0.4944917559623718,0.9355555772781372,0.00025
5.832890383317135e-05,1.0,0.4950939118862152,0.9355555772781372,0.00025
4.051997893839143e-05,1.0,0.49587902426719666,0.9355555772781372,0.00025
6.4056774135679e-05,1.0,0.49692073464393616,0.9353333115577698,0.00025
7.930624997243285e-05,1.0,0.49697792530059814,0.9351111054420471,0.00025
4.488206104724668e-05,1.0,0.49689751863479614,0.9351111054420471,0.00025
6.478992145275697e-05,1.0,0.49717116355895996,0.9351111054420471,0.00025
4.962240200256929e-05,1.0,0.4975447654724121,0.9351111054420471,0.00025
3.5448098060442135e-05,1.0,0.4981667697429657,0.9353333115577698,0.00025
3.5387991374591365e-05,1.0,0.49826133251190186,0.9351111054420471,0.00025
6.376498640747741e-05,1.0,0.4980029761791229,0.9353333115577698,0.00025
6.533288978971541e-05,1.0,0.4980349838733673,0.9355555772781372,0.00025
7.198695675469935e-05,1.0,0.49837636947631836,0.9355555772781372,0.00025
5.770863208454102e-05,1.0,0.49948984384536743,0.9353333115577698,0.00025
3.735075006261468e-05,1.0,0.4995099902153015,0.9353333115577698,0.00025
3.9358812500722706e-05,1.0,0.4995047152042389,0.9353333115577698,0.00025
3.4146622056141496e-05,1.0,0.4997149407863617,0.9353333115577698,0.00025
2.9243432436487637e-05,1.0,0.4997021555900574,0.9353333115577698,0.00025
4.673617513617501e-05,1.0,0.4996879994869232,0.9353333115577698,0.00025
6.41344886389561e-05,1.0,0.5001222491264343,0.9353333115577698,0.00025
6.0696795117110014e-05,1.0,0.5010183453559875,0.9353333115577698,0.00025
5.057535963715054e-05,1.0,0.5013230443000793,0.9355555772781372,0.00025
2.9528064260375686e-05,1.0,0.5016185641288757,0.9357777833938599,0.00025
9.625103120924905e-05,1.0,0.5020875930786133,0.9357777833938599,0.00025
4.734352114610374e-05,1.0,0.5011778473854065,0.9357777833938599,0.00025
4.212608837406151e-05,1.0,0.5004233121871948,0.9355555772781372,0.00025
4.584107227856293e-05,1.0,0.49998220801353455,0.9353333115577698,0.00025
6.065255729481578e-05,1.0,0.49971163272857666,0.9355555772781372,0.00025
5.3169558668741956e-05,1.0,0.5006476044654846,0.9353333115577698,0.00025
3.445654147071764e-05,1.0,0.501179575920105,0.9355555772781372,0.00025
3.412105797906406e-05,1.0,0.5015797019004822,0.9355555772781372,0.00025
3.9742400986142457e-05,1.0,0.5017879009246826,0.9355555772781372,0.000125
2.9540171453845687e-05,1.0,0.5018482804298401,0.9355555772781372,0.000125
0.00011369929416105151,1.0,0.5014055371284485,0.9355555772781372,0.000125
3.0791932658758014e-05,1.0,0.5012167692184448,0.9357777833938599,0.000125
5.6608048907946795e-05,1.0,0.5014415979385376,0.9359999895095825,0.000125
4.862779678660445e-05,1.0,0.501669704914093,0.9359999895095825,0.000125
4.9969567044172436e-05,1.0,0.5018413066864014,0.9359999895095825,0.000125
2.468923594278749e-05,1.0,0.5019096732139587,0.9359999895095825,0.000125
3.83465776394587e-05,1.0,0.5019996762275696,0.9357777833938599,0.000125
4.5813263568561524e-05,1.0,0.502124011516571,0.9355555772781372,0.000125
4.796231223735958e-05,1.0,0.5020872950553894,0.9355555772781372,0.000125
3.8418362237280235e-05,1.0,0.5021617412567139,0.9355555772781372,0.000125
3.738021769095212e-05,1.0,0.5020917057991028,0.9355555772781372,0.000125
4.072658339282498e-05,1.0,0.5018638372421265,0.9353333115577698,0.000125
5.196354686631821e-05,1.0,0.501921534538269,0.9351111054420471,0.000125
0.00022574957984033972,1.0,0.5028811097145081,0.9348888993263245,0.000125
3.462658423813991e-05,1.0,0.5040650963783264,0.9351111054420471,0.000125
6.57338896417059e-05,1.0,0.5038252472877502,0.9351111054420471,0.000125
2.993567795783747e-05,1.0,0.5035716891288757,0.9351111054420471,0.000125
2.671358743100427e-05,1.0,0.5034279823303223,0.9348888993263245,0.000125
0.00010064632806461304,1.0,0.5032617449760437,0.9353333115577698,0.000125
5.082059578853659e-05,1.0,0.5031015276908875,0.9348888993263245,0.000125
4.009420081274584e-05,1.0,0.5022082924842834,0.9351111054420471,0.000125
2.9450713554979302e-05,1.0,0.5019975304603577,0.9351111054420471,0.000125
3.775059667532332e-05,1.0,0.5020814538002014,0.9351111054420471,0.000125
5.714893268304877e-05,1.0,0.5024415850639343,0.9351111054420471,0.000125
2.5993316739914007e-05,1.0,0.5026403665542603,0.9351111054420471,0.000125
5.608003993984312e-05,1.0,0.5032234191894531,0.9353333115577698,0.000125
3.396931788302027e-05,1.0,0.503434956073761,0.9353333115577698,0.000125
0.00015126691141631454,1.0,0.5006456971168518,0.9353333115577698,0.000125
4.3135147279826924e-05,1.0,0.4987097978591919,0.9351111054420471,0.000125
3.5631328501040116e-05,1.0,0.498001366853714,0.9351111054420471,0.000125
6.948617374291644e-05,1.0,0.49690359830856323,0.9351111054420471,0.000125
3.9875209040474147e-05,1.0,0.49668240547180176,0.9348888993263245,0.000125
6.152713467599824e-05,1.0,0.4974632263183594,0.9348888993263245,0.000125
3.687572825583629e-05,1.0,0.49810895323753357,0.9351111054420471,0.000125
4.1093637264566496e-05,1.0,0.49838605523109436,0.9351111054420471,0.000125
0.00013642692647408694,1.0,0.49176958203315735,0.9351111054420471,0.000125
5.964270530967042e-05,1.0,0.4898492395877838,0.9348888993263245,0.000125
8.918926323531196e-05,1.0,0.48971447348594666,0.9344444274902344,0.000125
4.6928438678150997e-05,1.0,0.49085530638694763,0.9346666932106018,0.000125
4.070225986652076e-05,1.0,0.4923340976238251,0.9353333115577698,0.000125
4.9419886636314914e-05,1.0,0.49357545375823975,0.9351111054420471,0.000125
4.332639218773693e-05,1.0,0.49461448192596436,0.9351111054420471,0.000125
3.8559475797228515e-05,1.0,0.495544970035553,0.9351111054420471,0.000125
5.7591245422372594e-05,1.0,0.49644944071769714,0.9353333115577698,0.000125
5.2086219511693344e-05,1.0,0.4974997937679291,0.9353333115577698,0.000125
2.6925537895294838e-05,1.0,0.4984557330608368,0.9353333115577698,0.000125
4.5945071178721264e-05,1.0,0.49994009733200073,0.9357777833938599,0.000125
4.6131841372698545e-05,1.0,0.5008551478385925,0.9357777833938599,0.000125
2.931168273789808e-05,1.0,0.5012269616127014,0.9355555772781372,1e-04
7.463880319846794e-05,1.0,0.5015642046928406,0.9359999895095825,1e-04
0.00010543661483097821,1.0,0.5017699599266052,0.9357777833938599,1e-04
3.854063470498659e-05,1.0,0.5018169283866882,0.9357777833938599,1e-04
4.566278221318498e-05,1.0,0.5021840929985046,0.9353333115577698,1e-04
2.8660495445365086e-05,1.0,0.5023831129074097,0.9355555772781372,1e-04
8.320905908476561e-05,1.0,0.5016793608665466,0.9353333115577698,1e-04
4.130824527237564e-05,1.0,0.5009897947311401,0.9353333115577698,1e-04
4.4485368562163785e-05,1.0,0.5009415745735168,0.9355555772781372,1e-04
6.916237180121243e-05,1.0,0.5012693405151367,0.9355555772781372,1e-04
3.6829853343078867e-05,1.0,0.5015414953231812,0.9355555772781372,1e-04
2.7884354494744912e-05,1.0,0.5019508600234985,0.9357777833938599,1e-04
3.805902088060975e-05,1.0,0.5020846128463745,0.9357777833938599,1e-04
4.725648614112288e-05,1.0,0.502362072467804,0.9355555772781372,1e-04
7.377070869551972e-05,1.0,0.5025749206542969,0.9348888993263245,1e-04
9.145164221990854e-05,1.0,0.5025281310081482,0.9348888993263245,1e-04
2.8038995878887363e-05,1.0,0.5027315616607666,0.9348888993263245,1e-04
8.383887325180694e-05,1.0,0.5023667216300964,0.9351111054420471,1e-04
3.679480141727254e-05,1.0,0.5021144151687622,0.9351111054420471,1e-04
0.00015982422337401658,1.0,0.5035790205001831,0.9351111054420471,1e-04
4.653890209738165e-05,1.0,0.5047616362571716,0.9351111054420471,1e-04
3.951559483539313e-05,1.0,0.5050144195556641,0.9351111054420471,1e-04
4.9018144636647776e-05,1.0,0.5048607587814331,0.9351111054420471,1e-04
6.433402450056747e-05,1.0,0.5047719478607178,0.9351111054420471,1e-04
3.809617555816658e-05,1.0,0.5046363472938538,0.9351111054420471,1e-04
7.585326966363937e-05,1.0,0.5039852261543274,0.9351111054420471,1e-04
7.531209848821163e-05,1.0,0.5023525357246399,0.9344444274902344,1e-04
3.85442326660268e-05,1.0,0.5018700957298279,0.9342222213745117,1e-04
3.9706203097011894e-05,1.0,0.5019819140434265,0.9342222213745117,1e-04
4.182445991318673e-05,1.0,0.502328097820282,0.9342222213745117,1e-04
2.8603757527889684e-05,1.0,0.5027803182601929,0.9348888993263245,1e-04
4.338710641604848e-05,1.0,0.5026456117630005,0.9346666932106018,1e-04
3.7706136936321855e-05,1.0,0.5025051832199097,0.9344444274902344,1e-04
2.7100883016828448e-05,1.0,0.5027012228965759,0.9344444274902344,1e-04
4.806213473784737e-05,1.0,0.503161609172821,0.9346666932106018,1e-04
3.2706459023756906e-05,1.0,0.5035207271575928,0.9346666932106018,1e-04
4.723715392174199e-05,1.0,0.5039137601852417,0.9346666932106018,1e-04
4.2914485675282776e-05,1.0,0.5039944052696228,0.9348888993263245,1e-04
3.408336124266498e-05,1.0,0.5041646957397461,0.9348888993263245,1e-04
6.688974099233747e-05,1.0,0.504780650138855,0.9348888993263245,1e-04
3.467000715318136e-05,1.0,0.505050778388977,0.9351111054420471,1e-04
6.280837988015264e-05,1.0,0.5050183534622192,0.9348888993263245,1e-04
4.6163062506821007e-05,1.0,0.5046671032905579,0.9353333115577698,1e-04
2.9450869988068007e-05,1.0,0.5043550729751587,0.9353333115577698,1e-04
3.2668747735442594e-05,1.0,0.5043020248413086,0.9348888993263245,1e-04
3.578708492568694e-05,1.0,0.504188597202301,0.9348888993263245,1e-04
7.185255526565015e-05,1.0,0.5041730999946594,0.9355555772781372,1e-04
4.0997692849487066e-05,1.0,0.5040795207023621,0.9353333115577698,1e-04
5.037543814978562e-05,1.0,0.5038559436798096,0.9353333115577698,1e-04
4.458655166672543e-05,1.0,0.5038564205169678,0.9353333115577698,1e-04
7.978589565027505e-05,1.0,0.5035942196846008,0.9353333115577698,1e-04
3.7433801480801776e-05,1.0,0.5036596059799194,0.9351111054420471,1e-04
3.085640128119849e-05,1.0,0.5038158893585205,0.9353333115577698,1e-04
2.866848444682546e-05,1.0,0.5041083693504333,0.9353333115577698,1e-04
2.8744989322149195e-05,1.0,0.5043565034866333,0.9353333115577698,1e-04
5.077859532320872e-05,1.0,0.5047383308410645,0.9355555772781372,1e-04
3.6605342756956816e-05,1.0,0.5051891207695007,0.9355555772781372,1e-04
4.422373240231536e-05,1.0,0.5053987503051758,0.9355555772781372,1e-04
3.451629891060293e-05,1.0,0.5056389570236206,0.9357777833938599,1e-04
2.7792031687567942e-05,1.0,0.5057387948036194,0.9355555772781372,1e-04
3.192614167346619e-05,1.0,0.5058322548866272,0.9355555772781372,1e-04
3.113337515969761e-05,1.0,0.5059828758239746,0.9355555772781372,1e-04
4.9867758207255974e-05,1.0,0.5055197477340698,0.9357777833938599,1e-04
3.5592478525359184e-05,1.0,0.5053489804267883,0.9357777833938599,1e-04
2.5735798772075213e-05,1.0,0.5051387548446655,0.9355555772781372,1e-04
3.529437890392728e-05,1.0,0.5046544075012207,0.9355555772781372,1e-04
3.1909999961499125e-05,1.0,0.5045424699783325,0.9355555772781372,1e-04
2.788869824144058e-05,1.0,0.5046033263206482,0.9355555772781372,1e-04
3.5508252040017396e-05,1.0,0.5049721002578735,0.9353333115577698,1e-04
5.4535317758563906e-05,1.0,0.5052031874656677,0.9351111054420471,1e-04
3.229628782719374e-05,1.0,0.5052034258842468,0.9351111054420471,1e-04
5.926055382587947e-05,1.0,0.5054986476898193,0.9351111054420471,1e-04
3.014265348610934e-05,1.0,0.5056467652320862,0.9351111054420471,1e-04
2.7122441679239273e-05,1.0,0.5057694315910339,0.9353333115577698,1e-04
4.471965439734049e-05,1.0,0.5058971643447876,0.9351111054420471,1e-04
8.501270349370316e-05,1.0,0.5059488415718079,0.9348888993263245,1e-04
2.939557089121081e-05,1.0,0.5059046149253845,0.9346666932106018,1e-04
5.2707338909385726e-05,1.0,0.5057960152626038,0.9346666932106018,1e-04
3.980799010605551e-05,1.0,0.5049338936805725,0.9346666932106018,1e-04
9.475457045482472e-05,1.0,0.5049007534980774,0.9348888993263245,1e-04
4.2522340663708746e-05,1.0,0.505074143409729,0.9348888993263245,1e-04
3.424288297537714e-05,1.0,0.5056391358375549,0.9351111054420471,1e-04
5.7270302932010964e-05,1.0,0.5063185691833496,0.9353333115577698,1e-04
2.9757553420495242e-05,1.0,0.5065699815750122,0.9351111054420471,1e-04
4.1895829781424254e-05,1.0,0.5065181851387024,0.9355555772781372,1e-04
4.969998190063052e-05,1.0,0.5066014528274536,0.9355555772781372,1e-04
3.6503981391433626e-05,1.0,0.5071402788162231,0.9355555772781372,1e-04
3.873625973938033e-05,1.0,0.5076811909675598,0.9353333115577698,1e-04
2.9625762181240134e-05,1.0,0.5084050297737122,0.9351111054420471,1e-04
3.3792719477787614e-05,1.0,0.5085886120796204,0.9351111054420471,1e-04
4.555154009722173e-05,1.0,0.5078020691871643,0.9355555772781372,1e-04
2.511637649149634e-05,1.0,0.507036566734314,0.9353333115577698,1e-04
2.798485365929082e-05,1.0,0.5063075423240662,0.9353333115577698,1e-04
3.534694405971095e-05,1.0,0.5062288045883179,0.9353333115577698,1e-04
5.312796565704048e-05,1.0,0.5072253346443176,0.9355555772781372,1e-04
3.3642761991359293e-05,1.0,0.507821261882782,0.9355555772781372,1e-04
4.6763256250415e-05,1.0,0.5080165863037109,0.9353333115577698,1e-04
3.5575340007198974e-05,1.0,0.5078238844871521,0.9353333115577698,1e-04
3.408387055969797e-05,1.0,0.5078049898147583,0.9351111054420471,1e-04
3.3948592317756265e-05,1.0,0.5075088143348694,0.9351111054420471,1e-04
4.698124394053593e-05,1.0,0.5078876614570618,0.9351111054420471,1e-04
4.882153734797612e-05,1.0,0.5074316263198853,0.9351111054420471,1e-04
2.5846677090157755e-05,1.0,0.5073739886283875,0.9353333115577698,1e-04
2.792172563204076e-05,1.0,0.5074999332427979,0.9353333115577698,1e-04
4.586061913869344e-05,1.0,0.5079020857810974,0.9348888993263245,1e-04
2.717396455409471e-05,1.0,0.508124053478241,0.9351111054420471,1e-04
8.72275122674182e-05,1.0,0.507117509841919,0.9340000152587891,1e-04
5.637795402435586e-05,1.0,0.504891574382782,0.9331111311912537,1e-04
3.096893851761706e-05,1.0,0.5048099756240845,0.9328888654708862,1e-04
2.6847515982808545e-05,1.0,0.5051324963569641,0.9328888654708862,1e-04
3.741990076377988e-05,1.0,0.505642831325531,0.9331111311912537,1e-04
0.00013290991773828864,1.0,0.5073175430297852,0.9344444274902344,1e-04
2.9063327019684948e-05,1.0,0.5089786648750305,0.9353333115577698,1e-04
8.727847307454795e-05,1.0,0.5077245831489563,0.9351111054420471,1e-04
2.7775475246016867e-05,1.0,0.5047565698623657,0.9344444274902344,1e-04
4.7779754822840914e-05,1.0,0.5043506026268005,0.9344444274902344,1e-04
3.203966116416268e-05,1.0,0.504675030708313,0.9351111054420471,1e-04
4.031282878713682e-05,1.0,0.5049976706504822,0.9353333115577698,1e-04
2.267210220452398e-05,1.0,0.5052571892738342,0.9353333115577698,1e-04
4.175526191829704e-05,1.0,0.5058221817016602,0.9357777833938599,1e-04
4.870311386184767e-05,1.0,0.5058920979499817,0.9348888993263245,1e-04
4.720199285657145e-05,1.0,0.506476640701294,0.9353333115577698,1e-04
2.5089166229008697e-05,1.0,0.5069124698638916,0.9353333115577698,1e-04
4.278647611499764e-05,1.0,0.5077203512191772,0.9355555772781372,1e-04
3.3185693609993905e-05,1.0,0.5081806182861328,0.9353333115577698,1e-04
3.595468297135085e-05,1.0,0.5081514120101929,0.9355555772781372,1e-04
3.0623297789134085e-05,1.0,0.508056104183197,0.9355555772781372,1e-04
2.7602858608588576e-05,1.0,0.5082471370697021,0.9353333115577698,1e-04
3.910593659384176e-05,1.0,0.5087318420410156,0.9355555772781372,1e-04
3.214632670278661e-05,1.0,0.5090801119804382,0.9353333115577698,1e-04
2.3574481019750237e-05,1.0,0.509097158908844,0.9353333115577698,1e-04
4.143645492149517e-05,1.0,0.5090399980545044,0.9353333115577698,1e-04
7.83568320912309e-05,1.0,0.5090659856796265,0.9355555772781372,1e-04
4.285708928364329e-05,1.0,0.5083920955657959,0.9351111054420471,1e-04
2.1897370970691554e-05,1.0,0.5076454281806946,0.9351111054420471,1e-04
3.124281283817254e-05,1.0,0.5074414014816284,0.9351111054420471,1e-04
3.285391358076595e-05,1.0,0.5074251890182495,0.9351111054420471,1e-04
6.551862315973267e-05,1.0,0.5082485675811768,0.9351111054420471,1e-04
2.3588972908328287e-05,1.0,0.5088847279548645,0.9353333115577698,1e-04
2.56144176091766e-05,1.0,0.5093241333961487,0.9351111054420471,1e-04
4.6594988816650584e-05,1.0,0.5094648599624634,0.9351111054420471,1e-04
3.213355739717372e-05,1.0,0.5094876885414124,0.9353333115577698,1e-04
3.514060517773032e-05,1.0,0.5091796517372131,0.9351111054420471,1e-04
5.909234459977597e-05,1.0,0.5092662572860718,0.9353333115577698,1e-04
3.72930480807554e-05,1.0,0.5084131360054016,0.9353333115577698,1e-04
3.696168278111145e-05,1.0,0.507351815700531,0.9344444274902344,1e-04
3.1438084988621995e-05,1.0,0.5073224902153015,0.9344444274902344,1e-04
3.617487527662888e-05,1.0,0.5073035955429077,0.9344444274902344,1e-04
5.60641274205409e-05,1.0,0.5080108046531677,0.9344444274902344,1e-04
5.5352044000755996e-05,1.0,0.50870680809021,0.9353333115577698,1e-04
3.945975913666189e-05,1.0,0.5092803835868835,0.9353333115577698,1e-04
5.023231642553583e-05,1.0,0.5101893544197083,0.9351111054420471,1e-04
5.1738716138061136e-05,1.0,0.5095217823982239,0.9353333115577698,1e-04
3.088514495175332e-05,1.0,0.5097566246986389,0.9353333115577698,1e-04
4.333897231845185e-05,1.0,0.5103031396865845,0.9348888993263245,1e-04
4.7238587285391986e-05,1.0,0.5110370516777039,0.9351111054420471,1e-04
7.492945587728173e-05,1.0,0.5087701082229614,0.9357777833938599,1e-04
3.2597807148704305e-05,1.0,0.5073795318603516,0.9353333115577698,1e-04
3.309020758024417e-05,1.0,0.5070151090621948,0.9351111054420471,1e-04
2.7947806302108802e-05,1.0,0.5075222849845886,0.9351111054420471,1e-04
3.1607294658897445e-05,1.0,0.5075774192810059,0.9355555772781372,1e-04
2.405952909612097e-05,1.0,0.5078502893447876,0.9355555772781372,1e-04
2.5009030650835484e-05,1.0,0.5083678960800171,0.9353333115577698,1e-04
2.7743149985326454e-05,1.0,0.5091007947921753,0.9351111054420471,1e-04
2.3876344130258076e-05,1.0,0.5093454122543335,0.9351111054420471,1e-04
7.043727237032726e-05,1.0,0.5082178115844727,0.9351111054420471,1e-04
3.5292210668558255e-05,1.0,0.504554808139801,0.9353333115577698,1e-04
1.7299420505878516e-05,1.0,0.5036569833755493,0.9355555772781372,1e-04
2.7767004212364554e-05,1.0,0.5034896731376648,0.9353333115577698,1e-04
2.594863690319471e-05,1.0,0.5043005347251892,0.9351111054420471,1e-04
2.436243994452525e-05,1.0,0.5053073167800903,0.9353333115577698,1e-04
2.263601345475763e-05,1.0,0.5063298344612122,0.9348888993263245,1e-04
2.231347025372088e-05,1.0,0.507172167301178,0.9348888993263245,1e-04
3.221861334168352e-05,1.0,0.5081102252006531,0.9348888993263245,1e-04
2.5936220481526107e-05,1.0,0.5086702108383179,0.9348888993263245,1e-04
2.5350287614855915e-05,1.0,0.5089295506477356,0.9348888993263245,1e-04
1.831619010772556e-05,1.0,0.5088544487953186,0.9348888993263245,1e-04
2.61971235886449e-05,1.0,0.5089895129203796,0.9351111054420471,1e-04
2.3719572709524073e-05,1.0,0.5096125602722168,0.9348888993263245,1e-04
2.4637196474941447e-05,1.0,0.5104113221168518,0.9348888993263245,1e-04
3.226865374017507e-05,1.0,0.5108844637870789,0.9348888993263245,1e-04
2.502673123672139e-05,1.0,0.5118356943130493,0.9351111054420471,1e-04
2.45585306402063e-05,1.0,0.5120990872383118,0.9355555772781372,1e-04
3.838265547528863e-05,1.0,0.512401819229126,0.9353333115577698,1e-04
3.982504131272435e-05,1.0,0.5127997398376465,0.9353333115577698,1e-04
3.1406223570229486e-05,1.0,0.5132401585578918,0.9353333115577698,1e-04
2.061955638055224e-05,1.0,0.5131434798240662,0.9355555772781372,1e-04
2.9521683245548047e-05,1.0,0.5131869316101074,0.9353333115577698,1e-04
2.8768798074452206e-05,1.0,0.5129465460777283,0.9353333115577698,1e-04
2.783367563097272e-05,1.0,0.5124479532241821,0.9353333115577698,1e-04
2.7445878004073165e-05,1.0,0.5123788118362427,0.9351111054420471,1e-04
3.622591248131357e-05,1.0,0.5120033621788025,0.9351111054420471,1e-04
2.5382856620126404e-05,1.0,0.5119190812110901,0.9353333115577698,1e-04
3.24665306834504e-05,1.0,0.5102130770683289,0.9344444274902344,1e-04
4.3072286644019186e-05,1.0,0.5098614692687988,0.9342222213745117,1e-04
3.7736906961072236e-05,1.0,0.5099568963050842,0.9342222213745117,1e-04
1.926764343807008e-05,1.0,0.5100210309028625,0.9344444274902344,1e-04
2.4869708795449696e-05,1.0,0.5109978914260864,0.9346666932106018,1e-04
2.483848038536962e-05,1.0,0.5114858150482178,0.9348888993263245,1e-04
2.389652217971161e-05,1.0,0.5116496086120605,0.9346666932106018,1e-04
4.9251775635639206e-05,1.0,0.5114027261734009,0.9346666932106018,1e-04
3.138200918328948e-05,1.0,0.510791540145874,0.9351111054420471,1e-04
2.427711478958372e-05,1.0,0.51075679063797,0.9351111054420471,1e-04
2.8165737603558227e-05,1.0,0.5112543702125549,0.9351111054420471,1e-04
2.7486425096867606e-05,1.0,0.5117591619491577,0.9348888993263245,1e-04
5.0675851525738835e-05,1.0,0.5109566450119019,0.9348888993263245,1e-04
1.4026280041434802e-05,1.0,0.5107586979866028,0.9342222213745117,1e-04
4.096818884136155e-05,1.0,0.5087721943855286,0.9344444274902344,1e-04
3.0348694053827785e-05,1.0,0.5085461139678955,0.9351111054420471,1e-04
1.9098421034868807e-05,1.0,0.5092413425445557,0.9351111054420471,1e-04
2.8374393878038973e-05,1.0,0.5099900960922241,0.9351111054420471,1e-04
3.0503451853292063e-05,1.0,0.5108497142791748,0.9355555772781372,1e-04
2.8676438887487166e-05,1.0,0.5119597911834717,0.9355555772781372,1e-04
2.039820174104534e-05,1.0,0.5131657719612122,0.9355555772781372,1e-04
2.221930117229931e-05,1.0,0.5141025185585022,0.9355555772781372,1e-04
3.461221785983071e-05,1.0,0.5158249139785767,0.9353333115577698,1e-04
2.3618242266820744e-05,1.0,0.5168421864509583,0.9353333115577698,1e-04
1.681234971329104e-05,1.0,0.517340362071991,0.9351111054420471,1e-04
2.520460657251533e-05,1.0,0.5179354548454285,0.9351111054420471,1e-04
6.368804315570742e-05,1.0,0.5175663232803345,0.9351111054420471,1e-04
2.6024254111689515e-05,1.0,0.5130969285964966,0.9348888993263245,1e-04
3.6320489016361535e-05,1.0,0.511899471282959,0.9344444274902344,1e-04
2.2909824110683985e-05,1.0,0.5115218758583069,0.9344444274902344,1e-04
2.903272252297029e-05,1.0,0.5122706890106201,0.9346666932106018,1e-04
3.0508947020280175e-05,1.0,0.5131980180740356,0.9348888993263245,1e-04
2.0603441953426227e-05,1.0,0.5138425827026367,0.9346666932106018,1e-04
3.354137152200565e-05,1.0,0.514375627040863,0.9348888993263245,1e-04
3.48125358868856e-05,1.0,0.5127330422401428,0.9353333115577698,1e-04
3.710194505401887e-05,1.0,0.5122738480567932,0.9355555772781372,1e-04
3.11428120767232e-05,1.0,0.5128659009933472,0.9355555772781372,1e-04
3.0465693271253258e-05,1.0,0.5134875178337097,0.9353333115577698,1e-04
2.0122959540458396e-05,1.0,0.5141410827636719,0.9355555772781372,1e-04
2.1020860003773123e-05,1.0,0.5142385363578796,0.9359999895095825,1e-04
1.907471232698299e-05,1.0,0.5143008828163147,0.9357777833938599,1e-04
2.0991026758565567e-05,1.0,0.5142039060592651,0.9357777833938599,1e-04
2.3706452338956296e-05,1.0,0.5144533514976501,0.9357777833938599,1e-04
5.200173836783506e-05,1.0,0.5142136216163635,0.9348888993263245,1e-04
2.2661917682853527e-05,1.0,0.5142713785171509,0.9340000152587891,1e-04
1.7809772543841973e-05,1.0,0.5142821669578552,0.9340000152587891,1e-04
3.5406341339694336e-05,1.0,0.5142021179199219,0.9353333115577698,1e-04
3.591088534449227e-05,1.0,0.5146862268447876,0.9353333115577698,1e-04
2.3620916181243956e-05,1.0,0.514840304851532,0.9355555772781372,1e-04
3.302854020148516e-05,1.0,0.5152615308761597,0.9353333115577698,1e-04
4.200854164082557e-05,1.0,0.5141873359680176,0.9346666932106018,1e-04
5.03573173773475e-05,1.0,0.5132247805595398,0.9342222213745117,1e-04
1.726103073451668e-05,1.0,0.5126283764839172,0.9342222213745117,1e-04
2.134554051735904e-05,1.0,0.5129037499427795,0.9348888993263245,1e-04
2.9753593480563723e-05,1.0,0.5137232542037964,0.9348888993263245,1e-04
2.271380799356848e-05,1.0,0.5143844485282898,0.9346666932106018,1e-04
2.794901593006216e-05,1.0,0.5155501961708069,0.9353333115577698,1e-04
2.4151408069883473e-05,1.0,0.5168507695198059,0.9348888993263245,1e-04
1.520420209999429e-05,1.0,0.5180263519287109,0.9353333115577698,1e-04
2.8591144655365497e-05,1.0,0.5190069079399109,0.9353333115577698,1e-04
2.7927415430895053e-05,1.0,0.5190607905387878,0.9351111054420471,1e-04
3.6287252441979945e-05,1.0,0.5184473991394043,0.9344444274902344,1e-04
1.8229444322059862e-05,1.0,0.5178300738334656,0.9346666932106018,1e-04
1.5486482880078256e-05,1.0,0.5177493095397949,0.9342222213745117,1e-04
0.0001380963803967461,1.0,0.5139966607093811,0.9284444451332092,1e-04
7.741141598671675e-05,1.0,0.512434720993042,0.9317777752876282,1e-04
0.00013228716852609068,1.0,0.5130974054336548,0.9353333115577698,1e-04
2.3274913473869674e-05,1.0,0.5157769918441772,0.9366666674613953,1e-04
2.2835549316368997e-05,1.0,0.5174152851104736,0.9375555515289307,1e-04
2.489967482688371e-05,1.0,0.5187139511108398,0.9375555515289307,1e-04
2.3460550437448546e-05,1.0,0.5188285112380981,0.9371111392974854,1e-04
2.9627215553773567e-05,1.0,0.5188839435577393,0.9364444613456726,1e-04
2.0771512936335057e-05,1.0,0.5193712711334229,0.9366666674613953,1e-04
1.9833689293591306e-05,1.0,0.5196061730384827,0.9362221956253052,1e-04
3.1752111681271344e-05,1.0,0.5203881859779358,0.9362221956253052,1e-04
1.5602387065882795e-05,1.0,0.5208197832107544,0.9359999895095825,1e-04
3.128342723357491e-05,1.0,0.5209181308746338,0.9355555772781372,1e-04
2.6870122383115813e-05,1.0,0.5209254026412964,0.9353333115577698,1e-04
5.063736534793861e-05,1.0,0.5215462446212769,0.9359999895095825,1e-04
1.6063777366071008e-05,1.0,0.5213772058486938,0.9348888993263245,1e-04
2.15622585528763e-05,1.0,0.5217440724372864,0.9348888993263245,1e-04
4.245103627908975e-05,1.0,0.5219290852546692,0.9351111054420471,1e-04
2.7999385565635748e-05,1.0,0.5209649801254272,0.9346666932106018,1e-04
2.165944897569716e-05,1.0,0.520972490310669,0.9346666932106018,1e-04
2.718017276492901e-05,1.0,0.5211656093597412,0.9344444274902344,1e-04
2.3043745386530645e-05,1.0,0.5207262635231018,0.9342222213745117,1e-04
3.537178781698458e-05,1.0,0.5197083950042725,0.9348888993263245,1e-04
3.764994107768871e-05,1.0,0.5175170302391052,0.9344444274902344,1e-04
2.3121545382309705e-05,1.0,0.5165680646896362,0.9340000152587891,1e-04
2.198273978137877e-05,1.0,0.516513466835022,0.9344444274902344,1e-04
2.5024040951393545e-05,1.0,0.5174412727355957,0.9348888993263245,1e-04
2.3500753741245717e-05,1.0,0.5187403559684753,0.9353333115577698,1e-04
3.0299903301056474e-05,1.0,0.5202067494392395,0.9351111054420471,1e-04
2.2722348148818128e-05,1.0,0.5219824910163879,0.9359999895095825,1e-04
1.7304930224781856e-05,1.0,0.5227760076522827,0.9359999895095825,1e-04
2.9372309654718265e-05,1.0,0.5217209458351135,0.9351111054420471,1e-04
2.624410808493849e-05,1.0,0.520603358745575,0.9351111054420471,1e-04
3.76655298168771e-05,1.0,0.5203960537910461,0.9351111054420471,1e-04
2.1730702428612858e-05,1.0,0.521214485168457,0.9348888993263245,1e-04
2.2220108803594485e-05,1.0,0.5216941237449646,0.9348888993263245,1e-04
2.9140181140974164e-05,1.0,0.5210644602775574,0.9351111054420471,1e-04
2.8406426281435415e-05,1.0,0.521780788898468,0.9353333115577698,1e-04
1.7477217625128105e-05,1.0,0.522122859954834,0.9351111054420471,1e-04
1.6359648725483567e-05,1.0,0.5225095152854919,0.9351111054420471,1e-04
2.8021806429023854e-05,1.0,0.5223839282989502,0.9353333115577698,1e-04
2.5107397959800437e-05,1.0,0.5227952599525452,0.9353333115577698,1e-04
1.8352076949668117e-05,1.0,0.5227999687194824,0.9351111054420471,1e-04
2.1475869289133698e-05,1.0,0.5204554796218872,0.9351111054420471,1e-04
1.686524774413556e-05,1.0,0.5198169946670532,0.9357777833938599,1e-04
1.5043457096908242e-05,1.0,0.5190699696540833,0.9351111054420471,1e-04
1.7470765669713728e-05,1.0,0.5193127989768982,0.9351111054420471,1e-04
1.631562554393895e-05,1.0,0.5202328562736511,0.9351111054420471,1e-04
1.8272618035553023e-05,1.0,0.5206559300422668,0.9351111054420471,1e-04
2.0579611373250373e-05,1.0,0.5210700631141663,0.9346666932106018,1e-04
1.5864996385062113e-05,1.0,0.5215112566947937,0.9346666932106018,1e-04
1.555361450300552e-05,1.0,0.5221747756004333,0.9355555772781372,1e-04
1.435713693354046e-05,1.0,0.5214636325836182,0.9355555772781372,1e-04
2.0868272258667275e-05,1.0,0.5216466784477234,0.9355555772781372,1e-04
1.24688922369387e-05,1.0,0.5223263502120972,0.9357777833938599,1e-04
2.6525984139880165e-05,1.0,0.5228642225265503,0.9355555772781372,1e-04
2.7104621040052734e-05,1.0,0.5238015651702881,0.9355555772781372,1e-04
2.1394334908109158e-05,1.0,0.5244512557983398,0.9362221956253052,1e-04
4.2743340600281954e-05,1.0,0.5249075293540955,0.9362221956253052,1e-04
2.083603794744704e-05,1.0,0.5237801671028137,0.9357777833938599,1e-04
1.9918972611776553e-05,1.0,0.5228860974311829,0.9359999895095825,1e-04
2.0035669876961038e-05,1.0,0.5230118036270142,0.9357777833938599,1e-04
2.4554065021220595e-05,1.0,0.5224279165267944,0.9357777833938599,1e-04
1.286479709960986e-05,1.0,0.5226938128471375,0.9355555772781372,1e-04
3.581151759135537e-05,1.0,0.5216530561447144,0.9346666932106018,1e-04
2.0682222384493798e-05,1.0,0.5218451023101807,0.9346666932106018,1e-04
2.9606509997393005e-05,1.0,0.5237032771110535,0.9346666932106018,1e-04
2.8764345188392326e-05,1.0,0.5241345763206482,0.9353333115577698,1e-04
3.024821671715472e-05,1.0,0.524429976940155,0.9353333115577698,1e-04
2.580731779744383e-05,1.0,0.5246467590332031,0.9346666932106018,1e-04
1.7281337932217866e-05,1.0,0.5243467092514038,0.9342222213745117,1e-04
1.5373982023447752e-05,1.0,0.5245654582977295,0.9340000152587891,1e-04
3.0011880880920216e-05,1.0,0.5221065282821655,0.9333333373069763,1e-04
2.1524954718188383e-05,1.0,0.5216100215911865,0.933555543422699,1e-04
1.9476119632599875e-05,1.0,0.5222446918487549,0.933555543422699,1e-04
2.6034955226350576e-05,1.0,0.5219976305961609,0.933555543422699,1e-04
1.424321180820698e-05,1.0,0.5215096473693848,0.9337777495384216,1e-04
2.4391867555095814e-05,1.0,0.5216200947761536,0.9340000152587891,1e-04
1.6532734662177972e-05,1.0,0.5215477347373962,0.9346666932106018,1e-04
2.0126713934587315e-05,1.0,0.522595226764679,0.9348888993263245,1e-04
1.524975505162729e-05,1.0,0.5221280455589294,0.9346666932106018,1e-04
1.469484323024517e-05,1.0,0.5221283435821533,0.9344444274902344,1e-04
2.6427243938087486e-05,1.0,0.522546112537384,0.9346666932106018,1e-04
2.853478326869663e-05,1.0,0.5222538113594055,0.9348888993263245,1e-04
1.6033351130317897e-05,1.0,0.5226588249206543,0.9348888993263245,1e-04
2.1781086616101675e-05,1.0,0.5222343802452087,0.9342222213745117,1e-04
2.1633042706525885e-05,1.0,0.5218569040298462,0.9342222213745117,1e-04
3.018227835127618e-05,1.0,0.52018141746521,0.9364444613456726,1e-04
2.7349158699507825e-05,1.0,0.5187628865242004,0.9364444613456726,1e-04
1.3448222489387263e-05,1.0,0.5179303884506226,0.9357777833938599,1e-04
1.6503978258697316e-05,1.0,0.5187139511108398,0.9364444613456726,1e-04
2.21812315430725e-05,1.0,0.5201231241226196,0.9368888735771179,1e-04
1.7408388885087334e-05,1.0,0.5218198895454407,0.9366666674613953,1e-04
1.7984088117373176e-05,1.0,0.5219282507896423,0.9359999895095825,1e-04
1.9748584236367606e-05,1.0,0.5226247310638428,0.9355555772781372,1e-04
1.5129313396755606e-05,1.0,0.5238721966743469,0.9357777833938599,1e-04
4.6390214265557006e-05,1.0,0.52042555809021,0.9340000152587891,1e-04
2.0862182282144204e-05,1.0,0.5204775929450989,0.9297778010368347,1e-04
2.5352142984047532e-05,1.0,0.5203903913497925,0.9308888912200928,1e-04
3.3213276765309274e-05,1.0,0.5213271379470825,0.9331111311912537,1e-04
3.254931652918458e-05,1.0,0.5244977474212646,0.9348888993263245,1e-04
2.1085415937704965e-05,1.0,0.5258339047431946,0.9357777833938599,1e-04
1.2986271940462757e-05,1.0,0.526265561580658,0.9368888735771179,1e-04
2.8375312467687763e-05,1.0,0.5261186361312866,0.9364444613456726,1e-04
1.8155871657654643e-05,1.0,0.5262347459793091,0.9355555772781372,1e-04
1.666784919507336e-05,1.0,0.5276672840118408,0.9351111054420471,1e-04
1.9189648810424842e-05,1.0,0.5279635190963745,0.9342222213745117,1e-04
2.807301098073367e-05,1.0,0.5264163613319397,0.9346666932106018,1e-04
2.1637466488755308e-05,1.0,0.5250128507614136,0.9340000152587891,1e-04
1.3588045476353727e-05,1.0,0.525368332862854,0.9344444274902344,1e-04
2.0790255803149194e-05,1.0,0.5262657403945923,0.9342222213745117,1e-04
1.8112674297299236e-05,1.0,0.5267655253410339,0.9340000152587891,1e-04
1.1595922842388973e-05,1.0,0.5276484489440918,0.9342222213745117,1e-04
1.2729714399029035e-05,1.0,0.5286778211593628,0.9344444274902344,1e-04
1.275197064387612e-05,1.0,0.5300214886665344,0.9344444274902344,1e-04
1.3299493730301037e-05,1.0,0.5306417942047119,0.9348888993263245,1e-04
1.9394370610825717e-05,1.0,0.5312584042549133,0.9348888993263245,1e-04
1.3153974578017369e-05,1.0,0.530876100063324,0.9346666932106018,1e-04
1.9064202206209302e-05,1.0,0.5312718152999878,0.9340000152587891,1e-04
2.1943365936749615e-05,1.0,0.5293998122215271,0.9340000152587891,1e-04
1.3730008504353464e-05,1.0,0.5292664170265198,0.9337777495384216,1e-04
1.1338575859554112e-05,1.0,0.5291985273361206,0.9337777495384216,1e-04
1.1941600860154722e-05,1.0,0.5293819308280945,0.9342222213745117,1e-04
9.336561561212875e-06,1.0,0.5303268432617188,0.9346666932106018,1e-04
1.6077899999800138e-05,1.0,0.5316104888916016,0.9344444274902344,1e-04
1.112860809371341e-05,1.0,0.5323570370674133,0.9346666932106018,1e-04
1.1260922292422038e-05,1.0,0.5327143669128418,0.9346666932106018,1e-04
1.4582507901650388e-05,1.0,0.5331562757492065,0.9348888993263245,1e-04
2.6431487640365958e-05,1.0,0.5325775146484375,0.9344444274902344,1e-04
9.991120350605343e-06,1.0,0.5313683152198792,0.9344444274902344,1e-04
2.529611265345011e-05,1.0,0.5303916931152344,0.9342222213745117,1e-04
1.5999805327737704e-05,1.0,0.5301897525787354,0.9337777495384216,1e-04
4.746295962831937e-05,1.0,0.5207560658454895,0.9342222213745117,1e-04
2.099506491504144e-05,1.0,0.5139307379722595,0.9340000152587891,1e-04
1.7569822375662625e-05,1.0,0.5144112706184387,0.9337777495384216,1e-04
1.5084832739375997e-05,1.0,0.5172989368438721,0.9342222213745117,1e-04
1.2700957995548379e-05,1.0,0.5198945999145508,0.9340000152587891,1e-04
1.1765399904106744e-05,1.0,0.5228428840637207,0.9337777495384216,1e-04
1.3993423635838553e-05,1.0,0.5265918374061584,0.9344444274902344,1e-04
5.002742909709923e-05,1.0,0.5295762419700623,0.933555543422699,1e-04
1.566447645018343e-05,1.0,0.5323865413665771,0.933555543422699,1e-04
1.721189073577989e-05,1.0,0.5335765480995178,0.933555543422699,1e-04
1.199317557620816e-05,1.0,0.5350265502929688,0.933555543422699,1e-04
2.4922082957345992e-05,1.0,0.5359355211257935,0.9337777495384216,1e-04
1.5871451978455298e-05,1.0,0.5375609993934631,0.9355555772781372,1e-04
1.3430034414341208e-05,1.0,0.5390623211860657,0.9357777833938599,1e-04
1.5106043065316044e-05,1.0,0.5391277074813843,0.9357777833938599,1e-04
2.8492440833360888e-05,1.0,0.5404948592185974,0.9357777833938599,1e-04
1.4549829757015686e-05,1.0,0.5411884188652039,0.9359999895095825,1e-04
1.0684690096240956e-05,1.0,0.540722131729126,0.9355555772781372,1e-04
2.840241177182179e-05,1.0,0.5353922247886658,0.9342222213745117,1e-04
1.3626301551994402e-05,1.0,0.53239506483078,0.9337777495384216,1e-04
1.769369191606529e-05,1.0,0.5327062606811523,0.9342222213745117,1e-04
1.0785552149172872e-05,1.0,0.5338407754898071,0.9337777495384216,1e-04
1.1944956895604264e-05,1.0,0.535653829574585,0.9353333115577698,1e-04
2.4694561943761073e-05,1.0,0.5326173901557922,0.9342222213745117,1e-04
1.1547880603757221e-05,1.0,0.5327473878860474,0.9346666932106018,1e-04
1.7561256754561327e-05,1.0,0.5340574383735657,0.9355555772781372,1e-04
1.7139756891992874e-05,1.0,0.5333049893379211,0.9340000152587891,1e-04
1.1022633771062829e-05,1.0,0.5333554744720459,0.9337777495384216,1e-04
1.2602927199623082e-05,1.0,0.5342963933944702,0.9337777495384216,1e-04
1.3052592294116039e-05,1.0,0.53554767370224,0.933555543422699,1e-04
1.4136651770968456e-05,1.0,0.5362221002578735,0.9344444274902344,1e-04
1.0929811651294585e-05,1.0,0.5366246104240417,0.9348888993263245,1e-04
1.0636020306264982e-05,1.0,0.5367212295532227,0.9351111054420471,1e-04
2.4125887648551725e-05,1.0,0.5360117554664612,0.9348888993263245,1e-04
1.36663647936075e-05,1.0,0.536131739616394,0.9359999895095825,1e-04
9.909760592563543e-06,1.0,0.5351737141609192,0.9355555772781372,1e-04
9.511746611678973e-06,1.0,0.5355064272880554,0.9357777833938599,1e-04
1.5373141650343314e-05,1.0,0.5369467735290527,0.9362221956253052,1e-04
1.6578136637690477e-05,1.0,0.5384621620178223,0.9364444613456726,1e-04
1.2126190085837152e-05,1.0,0.5373032093048096,0.9359999895095825,1e-04
1.2466385669540614e-05,1.0,0.5353268980979919,0.9340000152587891,1e-04
1.4763480066903867e-05,1.0,0.5352417826652527,0.9340000152587891,1e-04
3.184942397638224e-05,1.0,0.5342521667480469,0.9295555353164673,1e-04
1.3729582860833034e-05,1.0,0.5348564386367798,0.9279999732971191,1e-04
1.081047685147496e-05,1.0,0.5342300534248352,0.9304444193840027,1e-04
1.1649034604488406e-05,1.0,0.5343443751335144,0.9322222471237183,1e-04
1.1772060133807827e-05,1.0,0.5357241630554199,0.9348888993263245,1e-04
1.522283400845481e-05,1.0,0.5352851152420044,0.9351111054420471,1e-04
9.998668247135356e-06,1.0,0.5354935526847839,0.9355555772781372,1e-04
1.2359669199213386e-05,1.0,0.5350676774978638,0.9351111054420471,1e-04
1.2124239219701849e-05,1.0,0.5363995432853699,0.9357777833938599,1e-04
1.6466950910398737e-05,1.0,0.5379335284233093,0.9355555772781372,1e-04
9.755361134011764e-06,1.0,0.5379778146743774,0.9344444274902344,1e-04
1.066256118065212e-05,1.0,0.5390198826789856,0.9344444274902344,1e-04
1.3885696716897655e-05,1.0,0.5403662919998169,0.9359999895095825,1e-04
1.0303377166565042e-05,1.0,0.5409770607948303,0.9359999895095825,1e-04
1.1903334780072328e-05,1.0,0.5409544706344604,0.9362221956253052,1e-04
1.8715672922553495e-05,1.0,0.5404191613197327,0.9362221956253052,1e-04
1.1284005267953034e-05,1.0,0.5396790504455566,0.9362221956253052,1e-04
1.1536333659023512e-05,1.0,0.5397309064865112,0.9362221956253052,1e-04
1.4627663404098712e-05,1.0,0.5391286611557007,0.9364444613456726,1e-04
8.283155693789013e-06,1.0,0.5388718247413635,0.9364444613456726,1e-04
1.498722213000292e-05,1.0,0.5385345220565796,0.9359999895095825,1e-04
1.029494796966901e-05,1.0,0.5379318594932556,0.9355555772781372,1e-04
9.178678737953305e-06,1.0,0.5377317667007446,0.9348888993263245,1e-04
1.2644946764339693e-05,1.0,0.5381343364715576,0.9353333115577698,1e-04
1.2270629667909816e-05,1.0,0.5373527407646179,0.9353333115577698,1e-04
1.5272191376425326e-05,1.0,0.5362840294837952,0.9346666932106018,1e-04
1.5734825865365565e-05,1.0,0.534949779510498,0.9344444274902344,1e-04
8.599116881669033e-06,1.0,0.535477876663208,0.9344444274902344,1e-04
1.2665258509514388e-05,1.0,0.5368418097496033,0.9342222213745117,1e-04
1.0204835234617349e-05,1.0,0.5385674238204956,0.9337777495384216,1e-04
1.2750853784382343e-05,1.0,0.5406192541122437,0.9344444274902344,1e-04
1.4255660971684847e-05,1.0,0.5415417551994324,0.9357777833938599,1e-04
1.3429920727503486e-05,1.0,0.5409456491470337,0.9348888993263245,1e-04
1.3321864571480546e-05,1.0,0.5400267243385315,0.9337777495384216,1e-04
1.4540009942720644e-05,1.0,0.5404031872749329,0.9340000152587891,1e-04
1.72740201378474e-05,1.0,0.5398002862930298,0.9342222213745117,1e-04
1.0408801244921051e-05,1.0,0.5393562912940979,0.9344444274902344,1e-04
1.0980355909850914e-05,1.0,0.5408570170402527,0.9353333115577698,1e-04
1.0685557754186448e-05,1.0,0.5414935350418091,0.9353333115577698,1e-04
1.1493069905554876e-05,1.0,0.5428498387336731,0.9362221956253052,1e-04
7.0511046033061575e-06,1.0,0.5441094040870667,0.9362221956253052,1e-04
1.0669500625226647e-05,1.0,0.5439745187759399,0.9362221956253052,1e-04
2.5066856323974207e-05,1.0,0.5371485352516174,0.9344444274902344,1e-04
1.2099574632884469e-05,1.0,0.5365804433822632,0.9346666932106018,1e-04
1.2594308827829082e-05,1.0,0.5388399958610535,0.9357777833938599,1e-04
9.664996468927711e-06,1.0,0.5404697060585022,0.9359999895095825,1e-04
4.346805144450627e-05,1.0,0.5241222381591797,0.9364444613456726,1e-04
1.2689906725427136e-05,1.0,0.5225894451141357,0.9366666674613953,1e-04
1.715388680167962e-05,1.0,0.5258840322494507,0.9359999895095825,1e-04
7.627546438015997e-06,1.0,0.5300705432891846,0.9364444613456726,1e-04
1.186682675324846e-05,1.0,0.5332298874855042,0.9364444613456726,1e-04
1.2067848729202524e-05,1.0,0.5345485806465149,0.9364444613456726,1e-04
9.524774213787168e-06,1.0,0.5370429158210754,0.9362221956253052,1e-04
1.4697229744342621e-05,1.0,0.5366183519363403,0.9364444613456726,1e-04
1.0319692592020147e-05,1.0,0.5372371673583984,0.9364444613456726,1e-04
6.311099241429474e-06,1.0,0.5384727120399475,0.9364444613456726,1e-04
7.097819434420671e-06,1.0,0.5389110445976257,0.9362221956253052,1e-04
9.383562428411096e-06,1.0,0.5390992164611816,0.9359999895095825,1e-04
7.151237241487252e-06,1.0,0.5397319793701172,0.9362221956253052,1e-04
9.554594726068899e-06,1.0,0.5403081178665161,0.9362221956253052,1e-04
1.1445627933426294e-05,1.0,0.5400713682174683,0.9351111054420471,1e-04
9.187721843773033e-06,1.0,0.540043294429779,0.9346666932106018,1e-04
1.1351200555509422e-05,1.0,0.5388852953910828,0.9340000152587891,1e-04
7.838988494768273e-06,1.0,0.5390151143074036,0.9346666932106018,1e-04
6.8121994445391465e-06,1.0,0.5395750999450684,0.9353333115577698,1e-04
1.573565896251239e-05,1.0,0.5404846668243408,0.9364444613456726,1e-04
1.329964925389504e-05,1.0,0.5378326177597046,0.9355555772781372,1e-04
2.1296540580806322e-05,1.0,0.5349233746528625,0.9344444274902344,1e-04
5.025327482144348e-05,1.0,0.5173071622848511,0.9346666932106018,1e-04
1.9424929632805288e-05,1.0,0.5027349591255188,0.9368888735771179,1e-04
1.9648843590402976e-05,1.0,0.49959737062454224,0.9355555772781372,1e-04
1.8126245777239092e-05,1.0,0.5110214352607727,0.9342222213745117,1e-04
2.0923904230585322e-05,1.0,0.5266260504722595,0.9355555772781372,1e-04
1.3249761650513392e-05,1.0,0.5361083149909973,0.9359999895095825,1e-04
1.2773145499522798e-05,1.0,0.5423303246498108,0.9357777833938599,1e-04
1.91198087122757e-05,1.0,0.5427873134613037,0.9355555772781372,1e-04
1.2724150110443588e-05,1.0,0.5417484045028687,0.9346666932106018,1e-04
1.6455920558655635e-05,1.0,0.5403276681900024,0.9319999814033508,1e-04
1.7961547200684436e-05,1.0,0.5410280823707581,0.9319999814033508,1e-04
1.040521965478547e-05,1.0,0.5427044034004211,0.9317777752876282,1e-04
9.122566552832723e-06,1.0,0.5432330369949341,0.9317777752876282,1e-04
8.803111995803192e-06,1.0,0.5440493226051331,0.9328888654708862,1e-04
1.3981529264128767e-05,1.0,0.5456321835517883,0.9333333373069763,1e-04
1.4797059520788025e-05,1.0,0.5472138524055481,0.9328888654708862,1e-04
1.4425695553654805e-05,1.0,0.5494030117988586,0.933555543422699,1e-04
7.1059212132240646e-06,1.0,0.551063597202301,0.9326666593551636,1e-04
6.733233931299765e-06,1.0,0.5509911775588989,0.9326666593551636,1e-04
5.966587195871398e-06,1.0,0.550868809223175,0.9344444274902344,1e-04
1.2609732038981747e-05,1.0,0.5518572330474854,0.9342222213745117,1e-04
1.0733288036135491e-05,1.0,0.5520082712173462,0.9346666932106018,1e-04
5.559835699386895e-06,1.0,0.5515411496162415,0.9348888993263245,1e-04
9.1691345005529e-06,1.0,0.5524708032608032,0.9346666932106018,1e-04
5.065850928076543e-06,1.0,0.5521785020828247,0.9351111054420471,1e-04
5.870474069524789e-06,1.0,0.5512944459915161,0.9348888993263245,1e-04
2.0290619431762025e-05,1.0,0.5472264289855957,0.9351111054420471,1e-04
2.1045807443442754e-05,1.0,0.540455162525177,0.933555543422699,1e-04
7.362258656939957e-06,1.0,0.5402519106864929,0.9340000152587891,1e-04
1.4528366591548547e-05,1.0,0.5427362322807312,0.9344444274902344,1e-04
6.501512871182058e-06,1.0,0.5469650030136108,0.9364444613456726,1e-04
1.0100254257849883e-05,1.0,0.5473794937133789,0.9362221956253052,1e-04
1.3315755495568737e-05,1.0,0.5468686819076538,0.9357777833938599,1e-04
6.0583543017855845e-06,1.0,0.5475751161575317,0.9353333115577698,1e-04
5.7684692365000956e-06,1.0,0.5492907166481018,0.9353333115577698,1e-04
7.05298361936002e-06,1.0,0.5505688786506653,0.9355555772781372,1e-04
9.751580364536494e-06,1.0,0.5508997440338135,0.9351111054420471,1e-04
9.431434591533616e-06,1.0,0.5495499968528748,0.9344444274902344,1e-04
6.476223916251911e-06,1.0,0.5509728193283081,0.9351111054420471,1e-04
5.063724984211149e-06,1.0,0.552409827709198,0.9359999895095825,1e-04
1.3963044693809934e-05,1.0,0.5507495999336243,0.933555543422699,1e-04
7.2892325988505036e-06,1.0,0.5530690550804138,0.9315555691719055,1e-04
1.085069561668206e-05,1.0,0.5529819130897522,0.9328888654708862,1e-04
9.138511813944206e-06,1.0,0.5537251830101013,0.9342222213745117,1e-04
2.331853647774551e-05,1.0,0.5550110936164856,0.9359999895095825,1e-04
1.2923635949846357e-05,1.0,0.5568042397499084,0.9359999895095825,1e-04
7.185748017946025e-06,1.0,0.5549923777580261,0.9351111054420471,1e-04
1.0442870006954763e-05,1.0,0.5550130605697632,0.9348888993263245,1e-04
6.2979042922961526e-06,1.0,0.5558009743690491,0.9355555772781372,1e-04
6.532550742122112e-06,1.0,0.5555298924446106,0.9355555772781372,1e-04
6.240022685233271e-06,1.0,0.5559428930282593,0.9355555772781372,1e-04
2.1171383195905946e-05,1.0,0.5488227009773254,0.9346666932106018,1e-04
6.982909781072522e-06,1.0,0.5493128299713135,0.9348888993263245,1e-04
1.4366294635692611e-05,1.0,0.5521042346954346,0.9353333115577698,1e-04
5.746266651840415e-06,1.0,0.5549807548522949,0.9355555772781372,1e-04
2.2819953301222995e-05,1.0,0.5447301268577576,0.9293333292007446,1e-04
1.4963131434342358e-05,1.0,0.5446776151657104,0.9284444451332092,1e-04
1.593094384588767e-05,1.0,0.5533351302146912,0.9368888735771179,1e-04
9.22882554732496e-06,1.0,0.5581582188606262,0.9375555515289307,1e-04
9.605120794731192e-06,1.0,0.5562424063682556,0.9362221956253052,1e-04
3.0016075470484793e-05,1.0,0.5492826700210571,0.9319999814033508,1e-04
1.1020817510143388e-05,1.0,0.548864483833313,0.9333333373069763,1e-04
1.2877925655629952e-05,1.0,0.5465503931045532,0.9348888993263245,1e-04
5.848560704180272e-06,1.0,0.5484840869903564,0.9366666674613953,1e-04
8.78522769198753e-06,1.0,0.5508428812026978,0.9368888735771179,1e-04
5.707349828298902e-06,1.0,0.5528079867362976,0.9362221956253052,1e-04
8.936407539295033e-06,1.0,0.5520650744438171,0.9353333115577698,1e-04
6.522467629110906e-06,1.0,0.5523396134376526,0.9340000152587891,1e-04
4.824591087526642e-06,1.0,0.5536194443702698,0.9340000152587891,1e-04
8.44327860249905e-06,1.0,0.5553526878356934,0.9353333115577698,1e-04
1.893240914796479e-05,1.0,0.5562674403190613,0.9357777833938599,1e-04
9.755524843058083e-06,1.0,0.5560657382011414,0.9353333115577698,1e-04
7.011265552137047e-06,1.0,0.5571197867393494,0.9348888993263245,1e-04
8.034869097173214e-06,1.0,0.5567274689674377,0.9340000152587891,1e-04
1.106230411096476e-05,1.0,0.5569623708724976,0.9344444274902344,1e-04
7.433471637341427e-06,1.0,0.5584751963615417,0.9359999895095825,1e-04
6.911792297614738e-06,1.0,0.5592472553253174,0.9353333115577698,1e-04
4.54277915196144e-06,1.0,0.5604836940765381,0.9353333115577698,1e-04
7.215265213744715e-06,1.0,0.5616315007209778,0.9353333115577698,1e-04
1.1870999514940195e-05,1.0,0.5581512451171875,0.9348888993263245,1e-04
5.006975243304623e-06,1.0,0.5530905723571777,0.9331111311912537,1e-04
1.114242786570685e-05,1.0,0.5537125468254089,0.9326666593551636,1e-04
1.2441395483619999e-05,1.0,0.553871214389801,0.9344444274902344,1e-04
1.7325724911643192e-05,1.0,0.558249294757843,0.9357777833938599,1e-04
1.4623138667957392e-05,1.0,0.5627626180648804,0.9357777833938599,1e-04
4.293360689189285e-06,1.0,0.5637373924255371,0.9357777833938599,1e-04
6.439546268666163e-06,1.0,0.563204824924469,0.9351111054420471,1e-04
6.361579380609328e-06,1.0,0.5629867911338806,0.9353333115577698,1e-04
5.955249889666447e-06,1.0,0.5616371035575867,0.9353333115577698,1e-04
6.307250259851571e-06,1.0,0.5593177080154419,0.9355555772781372,1e-04
8.639690349809825e-06,1.0,0.5583643913269043,0.9351111054420471,1e-04
6.9611651269951835e-06,1.0,0.5591568350791931,0.9357777833938599,1e-04
8.43306042952463e-06,1.0,0.559890627861023,0.9355555772781372,1e-04
7.99778263171902e-06,1.0,0.5599146485328674,0.9355555772781372,1e-04
4.619497758540092e-06,1.0,0.5592806935310364,0.9351111054420471,1e-04
1.3208453310653567e-05,1.0,0.5545651316642761,0.933555543422699,1e-04
7.742994057480246e-06,1.0,0.5528521537780762,0.9319999814033508,1e-04
7.4279773798480164e-06,1.0,0.5530049800872803,0.933555543422699,1e-04
9.375404260936193e-06,1.0,0.5559110641479492,0.9344444274902344,1e-04
5.95441997575108e-06,1.0,0.5594772696495056,0.9353333115577698,1e-04
5.7357779041922186e-06,1.0,0.5614790320396423,0.9355555772781372,1e-04
6.005183422530536e-06,1.0,0.5621889233589172,0.9353333115577698,1e-04
1.3163792573323008e-05,1.0,0.5536893010139465,0.9359999895095825,1e-04
4.616676960722543e-06,1.0,0.5485123991966248,0.9359999895095825,1e-04
7.829644346202258e-06,1.0,0.5480514764785767,0.9348888993263245,1e-04
1.1127850484626833e-05,1.0,0.550118088722229,0.9344444274902344,1e-04
5.881189736101078e-06,1.0,0.5527092814445496,0.9342222213745117,1e-04
6.3045854403753765e-06,1.0,0.555618941783905,0.9344444274902344,1e-04
7.23284301784588e-06,1.0,0.5575853586196899,0.9355555772781372,1e-04
6.0474039855762385e-06,1.0,0.5589086413383484,0.9351111054420471,1e-04
8.657001671963371e-06,1.0,0.5579872727394104,0.9348888993263245,1e-04
6.412138645828236e-06,1.0,0.5587850213050842,0.9351111054420471,1e-04
6.1448654378182255e-06,1.0,0.5602145791053772,0.9353333115577698,1e-04
5.303008492774097e-06,1.0,0.5614808201789856,0.9353333115577698,1e-04
6.7394148572930135e-06,1.0,0.5619626045227051,0.9353333115577698,1e-04
5.9245689953968395e-06,1.0,0.5601381063461304,0.9344444274902344,1e-04
5.84804638492642e-06,1.0,0.5602010488510132,0.9344444274902344,1e-04
1.1378243470971938e-05,1.0,0.5594841837882996,0.9348888993263245,1e-04
4.285719114704989e-06,1.0,0.5603458285331726,0.9351111054420471,1e-04
1.2334257007751148e-05,1.0,0.5608858466148376,0.9353333115577698,1e-04
1.0155379641219042e-05,1.0,0.5572606325149536,0.9342222213745117,1e-04
7.345512130996212e-06,1.0,0.5546392798423767,0.93022221326828,1e-04
6.515628683700925e-06,1.0,0.5545987486839294,0.9322222471237183,1e-04
5.130680165166268e-06,1.0,0.5597714781761169,0.9351111054420471,1e-04
6.880036835354986e-06,1.0,0.5582134127616882,0.9353333115577698,1e-04
6.43659495835891e-06,1.0,0.559601366519928,0.9353333115577698,1e-04
8.817642083158717e-06,1.0,0.5581873655319214,0.9337777495384216,1e-04
1.2654223610297777e-05,1.0,0.5608552098274231,0.9317777752876282,1e-04
7.798936167091597e-06,1.0,0.5655820965766907,0.9344444274902344,1e-04
6.556998414453119e-06,1.0,0.564677357673645,0.9351111054420471,1e-04
5.132326350576477e-06,1.0,0.5635673999786377,0.9348888993263245,1e-04
1.1818414350273088e-05,1.0,0.5649670362472534,0.9346666932106018,1e-04
5.193652214074973e-06,1.0,0.5660368204116821,0.9346666932106018,1e-04
1.473395877837902e-05,1.0,0.5665731430053711,0.9351111054420471,1e-04
6.198930350365117e-06,1.0,0.5658969283103943,0.9353333115577698,1e-04
7.628257208125433e-06,1.0,0.5648064613342285,0.9346666932106018,1e-04
4.9332979870087e-06,1.0,0.5665231347084045,0.9351111054420471,1e-04
4.103827905055368e-06,1.0,0.567376971244812,0.9348888993263245,1e-04
6.162770660012029e-06,1.0,0.5674046874046326,0.9342222213745117,1e-04
3.7452480228239438e-06,1.0,0.5679101347923279,0.9344444274902344,1e-04
7.129525329219177e-06,1.0,0.5679173469543457,0.9340000152587891,1e-04
5.660200713464292e-06,1.0,0.5695835947990417,0.9342222213745117,1e-04
1.3356475392356515e-05,1.0,0.5664982795715332,0.9346666932106018,1e-04
5.250843059911858e-06,1.0,0.5645334720611572,0.9346666932106018,1e-04
4.414269369590329e-06,1.0,0.5649875998497009,0.9346666932106018,1e-04
3.175709025526885e-06,1.0,0.5662134885787964,0.9353333115577698,1e-04
3.2129037208505906e-06,1.0,0.5669877529144287,0.9353333115577698,1e-04
4.6476129682559986e-06,1.0,0.5655902624130249,0.9353333115577698,1e-04
5.775959834863897e-06,1.0,0.5681058168411255,0.9351111054420471,1e-04
5.982618404232198e-06,1.0,0.5678529143333435,0.9340000152587891,1e-04
3.301121751064784e-06,1.0,0.5680790543556213,0.9340000152587891,1e-04
8.667687325214501e-06,1.0,0.5728526711463928,0.9353333115577698,1e-04
4.934455773764057e-06,1.0,0.5765491127967834,0.9364444613456726,1e-04
5.642803898808779e-06,1.0,0.5729105472564697,0.9351111054420471,1e-04
4.243545845383778e-06,1.0,0.570155918598175,0.9342222213745117,1e-04
3.8117620988487033e-06,1.0,0.5703396201133728,0.9342222213745117,1e-04
8.29607142804889e-06,1.0,0.5770432353019714,0.9357777833938599,1e-04
3.9913015825732145e-06,1.0,0.5753051042556763,0.9351111054420471,1e-04
5.251323727861745e-06,1.0,0.5734679102897644,0.9348888993263245,1e-04
3.1261106414604e-06,1.0,0.5710867047309875,0.9351111054420471,1e-04
6.04158731221105e-06,1.0,0.5674423575401306,0.9351111054420471,1e-04
6.461019438575022e-06,1.0,0.5677937269210815,0.9348888993263245,1e-04
3.919284608855378e-06,1.0,0.5681584477424622,0.9353333115577698,1e-04
6.5410677052568644e-06,1.0,0.5697062015533447,0.9344444274902344,1e-04
1.5911253285594285e-05,1.0,0.5769209861755371,0.9275555610656738,1e-04
7.513324817409739e-06,1.0,0.5849649310112,0.925777792930603,1e-04
1.2248604434716981e-05,1.0,0.5676081776618958,0.9344444274902344,1e-04
1.200884798890911e-05,1.0,0.565815806388855,0.9366666674613953,1e-04
5.913306267757434e-06,1.0,0.558061420917511,0.9351111054420471,1e-04
3.2183850180445006e-06,1.0,0.5554406642913818,0.9340000152587891,1e-04
9.494920050201472e-06,1.0,0.5579860210418701,0.9326666593551636,1e-04
9.000260433822405e-06,1.0,0.5627154111862183,0.9295555353164673,1e-04
6.877665782667464e-06,1.0,0.5648048520088196,0.9337777495384216,1e-04
3.92137371818535e-06,1.0,0.5675816535949707,0.9346666932106018,1e-04
3.1244303499988746e-06,1.0,0.5667270421981812,0.9357777833938599,1e-04
1.2535202586150263e-05,1.0,0.5589748024940491,0.9346666932106018,1e-04
9.779170795809478e-06,1.0,0.5545487403869629,0.9344444274902344,1e-04
6.85266059008427e-06,1.0,0.559165358543396,0.9337777495384216,1e-04
5.952733772573993e-06,1.0,0.5644662380218506,0.9337777495384216,1e-04
5.166228675079765e-06,1.0,0.5685843825340271,0.9337777495384216,1e-04
2.5281804028054466e-06,1.0,0.5722396373748779,0.9344444274902344,1e-04
3.610329258663114e-06,1.0,0.573531448841095,0.9346666932106018,1e-04
4.655987140722573e-06,1.0,0.5762280821800232,0.9353333115577698,1e-04
3.0741450700588757e-06,1.0,0.578103244304657,0.9353333115577698,1e-04
5.770854386355495e-06,1.0,0.5765141248703003,0.9351111054420471,1e-04
4.286174316803226e-06,1.0,0.574076771736145,0.9346666932106018,1e-04
3.3859689665405313e-06,1.0,0.572514533996582,0.9344444274902344,1e-04
6.570848654519068e-06,1.0,0.5711562037467957,0.9353333115577698,1e-04
4.98949066241039e-06,1.0,0.5722436904907227,0.9351111054420471,1e-04
2.768496869975934e-06,1.0,0.5745553374290466,0.9353333115577698,1e-04
6.438806849473622e-06,1.0,0.5770334005355835,0.9355555772781372,1e-04
4.286247531126719e-06,1.0,0.5806626081466675,0.9359999895095825,1e-04
3.0698547561769374e-06,1.0,0.5811005234718323,0.9359999895095825,1e-04
3.781017312576296e-06,1.0,0.5788103342056274,0.9355555772781372,1e-04
4.0244335650641005e-06,1.0,0.5764498710632324,0.9359999895095825,1e-04
2.7694502477970673e-06,1.0,0.5758194327354431,0.9359999895095825,1e-04
1.964797320397338e-06,1.0,0.5766348242759705,0.9359999895095825,1e-04
4.0613745113660116e-06,1.0,0.5773771405220032,0.9359999895095825,1e-04
8.494021130900364e-06,1.0,0.574284553527832,0.9351111054420471,1e-04
6.397794095391873e-06,1.0,0.5751102566719055,0.9282222390174866,1e-04
5.442893780127633e-06,1.0,0.5723059773445129,0.933555543422699,1e-04
4.441686087375274e-06,1.0,0.5774355530738831,0.9348888993263245,1e-04
3.3533294754306553e-06,1.0,0.5816607475280762,0.9362221956253052,1e-04
6.98651001584949e-06,1.0,0.5737694501876831,0.9340000152587891,1e-04
2.5820577320700977e-06,1.0,0.5732021331787109,0.9342222213745117,1e-04
3.692322479764698e-06,1.0,0.5745894312858582,0.9340000152587891,1e-04
4.809501660929527e-06,1.0,0.5746408700942993,0.9355555772781372,1e-04
4.362737854535226e-06,1.0,0.5747427344322205,0.9355555772781372,1e-04
8.202935532608535e-06,1.0,0.5741133689880371,0.9355555772781372,1e-04
4.142641955695581e-06,1.0,0.5720441937446594,0.9359999895095825,1e-04
3.1680749543738784e-06,1.0,0.5715512633323669,0.9355555772781372,1e-04
3.3737942430889234e-06,1.0,0.5718172788619995,0.9355555772781372,1e-04
3.2784530503704445e-06,1.0,0.5727155804634094,0.9351111054420471,1e-04
3.421512474233168e-06,1.0,0.5731862783432007,0.9351111054420471,1e-04
2.6821826395462267e-06,1.0,0.572995662689209,0.9351111054420471,1e-04
3.83181577490177e-06,1.0,0.5732079744338989,0.9353333115577698,1e-04
3.0464834708254784e-06,1.0,0.5747056007385254,0.9355555772781372,1e-04
5.184171641303692e-06,1.0,0.5712197422981262,0.9348888993263245,1e-04
4.0041959437076e-06,1.0,0.5716253519058228,0.9351111054420471,1e-04
4.052800250065047e-06,1.0,0.573697030544281,0.9351111054420471,1e-04
3.580702923500212e-06,1.0,0.5740315914154053,0.9351111054420471,1e-04
2.711258503040881e-06,1.0,0.5739503502845764,0.9348888993263245,1e-04
3.0202661491784966e-06,1.0,0.5744225978851318,0.9346666932106018,1e-04
2.571568757048226e-06,1.0,0.5772059559822083,0.9344444274902344,1e-04
4.5475294427888e-06,1.0,0.5796446204185486,0.9355555772781372,1e-04
3.0030398647795664e-06,1.0,0.5772272348403931,0.9351111054420471,1e-04
1.2523717487056274e-05,1.0,0.5743878483772278,0.9340000152587891,1e-04
5.135668743605493e-06,1.0,0.5696556568145752,0.9357777833938599,1e-04
3.992513939010678e-06,1.0,0.5733937621116638,0.9375555515289307,1e-04
4.276453637430677e-06,1.0,0.56489497423172,0.9344444274902344,1e-04
3.7741183405159973e-06,1.0,0.5641959309577942,0.9353333115577698,1e-04
4.265206825948553e-06,1.0,0.5657637715339661,0.9366666674613953,1e-04
6.860717803647276e-06,1.0,0.5586945414543152,0.9364444613456726,1e-04
4.7592452574463096e-06,1.0,0.5626528859138489,0.9364444613456726,1e-04
1.17141298687784e-05,1.0,0.5697928071022034,0.9346666932106018,1e-04
4.438092219061218e-06,1.0,0.5742543935775757,0.9353333115577698,1e-04
1.469266317144502e-05,1.0,0.568631112575531,0.9277777671813965,1e-04
1.1252781405346468e-05,1.0,0.5712034106254578,0.93022221326828,1e-04
7.533208190579899e-06,1.0,0.605017900466919,0.9391111135482788,1e-04
3.781185296247713e-05,1.0,0.5792547464370728,0.9222221970558167,1e-04
0.0006511090905405581,1.0,1.0303150415420532,0.8575555682182312,1e-04
0.04688716307282448,0.9879999756813049,1.3204872608184814,0.8773333430290222,1e-04
0.025492651388049126,0.9900000095367432,6.730723857879639,0.37444445490837097,1e-04
0.00756995752453804,0.9980000257492065,6.176106929779053,0.38288888335227966,1e-04
0.0026056249625980854,1.0,2.5016136169433594,0.5744444727897644,1e-04
0.001711933990009129,1.0,1.114713191986084,0.8644444346427917,1e-04
0.0006903089815750718,1.0,0.82682204246521,0.9279999732971191,1e-04
0.0005548637127503753,1.0,0.744335412979126,0.9366666674613953,1e-04
0.000371330272173509,1.0,0.7102044820785522,0.9393333196640015,1e-04
0.00039362043025903404,1.0,0.6849920749664307,0.9399999976158142,1e-04
0.0003175717138219625,1.0,0.6540536284446716,0.9404444694519043,1e-04
0.00033372140023857355,1.0,0.6344760060310364,0.9404444694519043,1e-04
0.00020918990776408464,1.0,0.6256505846977234,0.940666675567627,1e-04
0.0002977457479573786,1.0,0.6105868816375732,0.9408888816833496,1e-04
0.00023943818814586848,1.0,0.6023677587509155,0.9408888816833496,1e-04
0.00030157179571688175,1.0,0.5918930172920227,0.940666675567627,1e-04
0.0002316358295502141,1.0,0.585624098777771,0.9397777915000916,1e-04
0.00017745155491866171,1.0,0.5793188810348511,0.9402222037315369,1e-04
0.00016679824329912663,1.0,0.572654128074646,0.9395555257797241,1e-04
0.0004144675622228533,1.0,0.5687108635902405,0.9388889074325562,1e-04
0.0002776003966573626,1.0,0.5661303997039795,0.9386666417121887,1e-04
0.00011025802814401686,1.0,0.5633916258811951,0.9386666417121887,1e-04
0.00016913542640395463,1.0,0.5605937242507935,0.9388889074325562,1e-04
0.00018635697779245675,1.0,0.5587886571884155,0.9388889074325562,1e-04
9.14662959985435e-05,1.0,0.5552760362625122,0.9386666417121887,1e-04
0.00011607180931605399,1.0,0.5542593598365784,0.9386666417121887,1e-04
0.00012534753477666527,1.0,0.5532493591308594,0.9388889074325562,1e-04
9.330111788585782e-05,1.0,0.551278293132782,0.9384444355964661,1e-04
0.0001472384756198153,1.0,0.548076331615448,0.937333345413208,1e-04
0.0001702801528153941,1.0,0.5448447465896606,0.9368888735771179,1e-04
0.00013286604371387511,1.0,0.5435038805007935,0.9366666674613953,1e-04
7.86416421760805e-05,1.0,0.5431841611862183,0.9366666674613953,1e-04
0.00011687317601172253,1.0,0.5445641875267029,0.9368888735771179,1e-04
0.00011303961946396157,1.0,0.5453125834465027,0.937333345413208,1e-04
9.64095743256621e-05,1.0,0.5447116494178772,0.9371111392974854,1e-04
8.944817091105506e-05,1.0,0.5446763634681702,0.9368888735771179,1e-04
9.248733113054186e-05,1.0,0.5441661477088928,0.9364444613456726,1e-04
0.0001155370773631148,1.0,0.5452268719673157,0.9364444613456726,1e-04
9.953122935257852e-05,1.0,0.5450387597084045,0.9364444613456726,1e-04
0.00015997764421626925,1.0,0.5429295897483826,0.9357777833938599,1e-04
0.00012305640848353505,1.0,0.542595624923706,0.9344444274902344,1e-04
9.201321518048644e-05,1.0,0.5424608588218689,0.9348888993263245,1e-04
8.654446719447151e-05,1.0,0.5430323481559753,0.9348888993263245,1e-04
7.672981882933527e-05,1.0,0.5436286926269531,0.9357777833938599,1e-04
7.73394713178277e-05,1.0,0.5446606874465942,0.9364444613456726,1e-04
8.456546493107453e-05,1.0,0.5452235341072083,0.9364444613456726,1e-04
5.6250315537909046e-05,1.0,0.5449233651161194,0.9364444613456726,1e-04
6.72334645059891e-05,1.0,0.545452892780304,0.9364444613456726,1e-04
0.00011356700997566804,1.0,0.5445096492767334,0.9362221956253052,1e-04
0.00010361930617364123,1.0,0.5434027910232544,0.9348888993263245,1e-04
7.135009218472987e-05,1.0,0.5442274212837219,0.9353333115577698,1e-04
6.0380705690477043e-05,1.0,0.5452254414558411,0.9357777833938599,1e-04
8.591558435000479e-05,1.0,0.5470854043960571,0.9362221956253052,1e-04
6.443323218263686e-05,1.0,0.5476838946342468,0.9357777833938599,1e-04
7.570916204713285e-05,1.0,0.5481559038162231,0.9357777833938599,1e-04
5.8634497690945864e-05,1.0,0.5488666296005249,0.9359999895095825,1e-04
9.419301932211965e-05,1.0,0.5502461194992065,0.9362221956253052,1e-04
6.887171184644103e-05,1.0,0.5482931137084961,0.9351111054420471,1e-04
9.638017218094319e-05,1.0,0.5484156608581543,0.9351111054420471,1e-04
6.0397902416298166e-05,1.0,0.5485453009605408,0.9353333115577698,1e-04
0.00015993666602298617,1.0,0.5462358593940735,0.9340000152587891,1e-04
5.513442010851577e-05,1.0,0.5451607704162598,0.933555543422699,1e-04
7.470417767763138e-05,1.0,0.5465087890625,0.9342222213745117,1e-04
6.357653910527006e-05,1.0,0.5477843284606934,0.9344444274902344,1e-04
4.907172842649743e-05,1.0,0.5491951107978821,0.9348888993263245,1e-04
5.751812568632886e-05,1.0,0.5506623387336731,0.9355555772781372,1e-04
6.661677616648376e-05,1.0,0.5524479746818542,0.9362221956253052,1e-04
5.374978354666382e-05,1.0,0.5542870759963989,0.9364444613456726,1e-04
5.6282689911313355e-05,1.0,0.5553629398345947,0.9364444613456726,1e-04
8.632616663817316e-05,1.0,0.554636538028717,0.9359999895095825,1e-04
4.570718010654673e-05,1.0,0.5549620389938354,0.9359999895095825,1e-04
5.00768146594055e-05,1.0,0.5561450719833374,0.9362221956253052,1e-04
8.479399548377842e-05,1.0,0.5559298992156982,0.9364444613456726,1e-04
3.996261875727214e-05,1.0,0.5555176734924316,0.9359999895095825,1e-04
5.8406381867825985e-05,1.0,0.5557440519332886,0.9357777833938599,1e-04
5.580455035669729e-05,1.0,0.5561211705207825,0.9359999895095825,1e-04
5.79856859985739e-05,1.0,0.5566261410713196,0.9362221956253052,1e-04
6.402172584785149e-05,1.0,0.5574992299079895,0.9364444613456726,1e-04
0.00011231671669520438,1.0,0.5585425496101379,0.9368888735771179,1e-04
3.782287603826262e-05,1.0,0.5583900213241577,0.9375555515289307,1e-04
5.705098737962544e-05,1.0,0.5570927858352661,0.9368888735771179,1e-04
4.568624353851192e-05,1.0,0.5578634142875671,0.9371111392974854,1e-04
4.303634341340512e-05,1.0,0.5577402114868164,0.9368888735771179,1e-04
6.588700489373878e-05,1.0,0.5579401850700378,0.9366666674613953,1e-04
5.429160955827683e-05,1.0,0.5569766163825989,0.9364444613456726,1e-04
4.3612177250906825e-05,1.0,0.5567964315414429,0.9366666674613953,1e-04
6.083276457502507e-05,1.0,0.5573809146881104,0.9366666674613953,1e-04
2.4729837605264038e-05,1.0,0.5579164624214172,0.9364444613456726,1e-04
3.0336206691572443e-05,1.0,0.5582498908042908,0.9364444613456726,1e-04
3.701812602230348e-05,1.0,0.5589631199836731,0.9364444613456726,1e-04
5.1855400670319796e-05,1.0,0.5597242712974548,0.9364444613456726,1e-04
6.373898941092193e-05,1.0,0.5606902837753296,0.9364444613456726,1e-04
3.531124093569815e-05,1.0,0.5612223744392395,0.9364444613456726,1e-04
4.259453635313548e-05,1.0,0.5623618364334106,0.9364444613456726,1e-04
3.054491389775649e-05,1.0,0.562663733959198,0.9364444613456726,1e-04
4.322858512750827e-05,1.0,0.563602089881897,0.9366666674613953,1e-04
2.660377685970161e-05,1.0,0.5639730095863342,0.9371111392974854,1e-04
5.593051537289284e-05,1.0,0.562929630279541,0.9364444613456726,1e-04
3.3921947760973126e-05,1.0,0.5612788796424866,0.9355555772781372,1e-04
3.837700205622241e-05,1.0,0.5608803629875183,0.9357777833938599,1e-04
3.318219751236029e-05,1.0,0.5611787438392639,0.9359999895095825,1e-04
2.8212536562932655e-05,1.0,0.5614675283432007,0.9362221956253052,1e-04
4.781140523846261e-05,1.0,0.5613580346107483,0.9359999895095825,1e-04
3.206669498467818e-05,1.0,0.5609689950942993,0.9357777833938599,1e-04
2.432223664072808e-05,1.0,0.5614868998527527,0.9357777833938599,1e-04
5.057208181824535e-05,1.0,0.5625008940696716,0.9362221956253052,1e-04
4.454756708582863e-05,1.0,0.5634137988090515,0.9362221956253052,1e-04
2.2168569557834417e-05,1.0,0.563787579536438,0.9362221956253052,1e-04
2.930276059487369e-05,1.0,0.563802182674408,0.9362221956253052,1e-04
4.912445365334861e-05,1.0,0.5643460154533386,0.9359999895095825,1e-04
5.826682900078595e-05,1.0,0.5646597743034363,0.9359999895095825,1e-04
2.3315988073591143e-05,1.0,0.5640786290168762,0.9353333115577698,1e-04
3.172922515659593e-05,1.0,0.5644345879554749,0.9353333115577698,1e-04
4.337121936259791e-05,1.0,0.5634013414382935,0.9351111054420471,1e-04
2.6107481971848756e-05,1.0,0.5629246234893799,0.9346666932106018,1e-04
2.622962165332865e-05,1.0,0.5633652806282043,0.9351111054420471,1e-04
3.7030436942586675e-05,1.0,0.5643072724342346,0.9353333115577698,1e-04
3.349188409629278e-05,1.0,0.5657457709312439,0.9362221956253052,1e-04
2.351462717342656e-05,1.0,0.5665044784545898,0.9362221956253052,1e-04
4.332794196670875e-05,1.0,0.5673314929008484,0.9364444613456726,1e-04
2.8930475309607573e-05,1.0,0.5686535835266113,0.9368888735771179,1e-04
5.185281770536676e-05,1.0,0.5688099265098572,0.9375555515289307,1e-04
7.472832658095285e-05,1.0,0.5668883919715881,0.9368888735771179,1e-04
1.970552148122806e-05,1.0,0.5659990310668945,0.9368888735771179,1e-04
2.2667922166874632e-05,1.0,0.5662025213241577,0.9368888735771179,1e-04
3.8891663280082867e-05,1.0,0.5662204623222351,0.9368888735771179,1e-04
3.827248656307347e-05,1.0,0.566087543964386,0.9364444613456726,1e-04
2.5428098524571396e-05,1.0,0.5666834712028503,0.9364444613456726,1e-04
2.08853671210818e-05,1.0,0.567216694355011,0.9366666674613953,1e-04
2.3040662199491635e-05,1.0,0.5679850578308105,0.9368888735771179,1e-04
3.927589932573028e-05,1.0,0.5685209631919861,0.9366666674613953,1e-04
4.357475700089708e-05,1.0,0.5671029686927795,0.9355555772781372,1e-04
4.257678665453568e-05,1.0,0.5671969056129456,0.9353333115577698,1e-04
3.127863965346478e-05,1.0,0.5676307678222656,0.9353333115577698,1e-04
3.094592102570459e-05,1.0,0.5684449672698975,0.9351111054420471,1e-04
5.300203338265419e-05,1.0,0.5700665712356567,0.9351111054420471,1e-04
1.791676550055854e-05,1.0,0.5710335373878479,0.9355555772781372,1e-04
2.3445509214070626e-05,1.0,0.5715596675872803,0.9355555772781372,1e-04
5.186999624129385e-05,1.0,0.5722671151161194,0.9357777833938599,1e-04
2.2651225663139485e-05,1.0,0.5732070207595825,0.9359999895095825,1e-04
4.221762719680555e-05,1.0,0.5739240050315857,0.9368888735771179,1e-04
2.2422720576287247e-05,1.0,0.5743273496627808,0.9368888735771179,1e-04
3.229792127967812e-05,1.0,0.5741377472877502,0.9368888735771179,1e-04
4.195963992970064e-05,1.0,0.5741012096405029,0.9371111392974854,1e-04
1.927880111907143e-05,1.0,0.5737366080284119,0.9371111392974854,1e-04
1.8110969904228114e-05,1.0,0.5736250281333923,0.9368888735771179,1e-04
2.2725958842784166e-05,1.0,0.5731932520866394,0.9368888735771179,1e-04
1.6866666555870324e-05,1.0,0.5732244253158569,0.9366666674613953,1e-04
2.6064881240017712e-05,1.0,0.5736388564109802,0.9364444613456726,1e-04
3.173740333295427e-05,1.0,0.5738855004310608,0.9364444613456726,1e-04
1.5605624867021106e-05,1.0,0.5739131569862366,0.9366666674613953,1e-04
2.1818725144839846e-05,1.0,0.5739432573318481,0.9366666674613953,1e-04
3.8312398828566074e-05,1.0,0.5733965039253235,0.9366666674613953,1e-04
4.035681195091456e-05,1.0,0.5712365508079529,0.9353333115577698,1e-04
2.2423617338063195e-05,1.0,0.571102499961853,0.9353333115577698,1e-04
1.7110438420786522e-05,1.0,0.5713915228843689,0.9355555772781372,1e-04
1.9714989321073517e-05,1.0,0.5722931623458862,0.9357777833938599,1e-04
3.84280901926104e-05,1.0,0.5717772841453552,0.9348888993263245,1e-04
2.8737653337884694e-05,1.0,0.5710590481758118,0.9346666932106018,1e-04
2.4261849830509163e-05,1.0,0.57075035572052,0.9344444274902344,1e-04
1.9801515009021387e-05,1.0,0.5708468556404114,0.9346666932106018,1e-04
3.731550896191038e-05,1.0,0.5709781050682068,0.9346666932106018,1e-04
2.6629981221049093e-05,1.0,0.5705188512802124,0.9351111054420471,1e-04
3.88653133995831e-05,1.0,0.5713554620742798,0.9353333115577698,1e-04
2.5980096324929036e-05,1.0,0.5722230076789856,0.9362221956253052,1e-04
2.2443304260377772e-05,1.0,0.5733398795127869,0.9368888735771179,1e-04
2.292586214025505e-05,1.0,0.5742430090904236,0.9368888735771179,1e-04
3.0447814424405806e-05,1.0,0.5741966366767883,0.9368888735771179,1e-04
2.4443752408842556e-05,1.0,0.5747305154800415,0.9371111392974854,1e-04
1.680616151134018e-05,1.0,0.57546466588974,0.9368888735771179,1e-04
3.541755359037779e-05,1.0,0.5756748914718628,0.9368888735771179,1e-04
1.6952973965089768e-05,1.0,0.5755941271781921,0.9366666674613953,1e-04
2.046024201263208e-05,1.0,0.5753827691078186,0.9364444613456726,1e-04
1.5332303519244306e-05,1.0,0.5755826830863953,0.9364444613456726,1e-04
1.988340045500081e-05,1.0,0.5755201578140259,0.9364444613456726,1e-04
1.9376373529667035e-05,1.0,0.5756072998046875,0.9364444613456726,1e-04
3.455249316175468e-05,1.0,0.5756452083587646,0.9362221956253052,1e-04
2.4805958673823625e-05,1.0,0.5755345225334167,0.9359999895095825,1e-04
1.623504977033008e-05,1.0,0.5762429237365723,0.9362221956253052,1e-04
1.98674406419741e-05,1.0,0.576758086681366,0.9362221956253052,1e-04
2.2044127035769634e-05,1.0,0.5771014094352722,0.9362221956253052,1e-04
1.5459456335520372e-05,1.0,0.5771191716194153,0.9362221956253052,1e-04
2.12309169000946e-05,1.0,0.5778239965438843,0.9359999895095825,1e-04
1.5886005712673068e-05,1.0,0.5781328678131104,0.9362221956253052,1e-04
2.3103761122911237e-05,1.0,0.5788389444351196,0.9364444613456726,1e-04
2.6324585633119568e-05,1.0,0.5794370770454407,0.9362221956253052,1e-04
1.695671380730346e-05,1.0,0.579889714717865,0.9362221956253052,1e-04
1.9586896087275818e-05,1.0,0.5789300203323364,0.9364444613456726,1e-04
1.330661507381592e-05,1.0,0.5786145329475403,0.9362221956253052,1e-04
3.45763037330471e-05,1.0,0.5783666372299194,0.9359999895095825,1e-04
1.1562976396817248e-05,1.0,0.5781269073486328,0.9359999895095825,1e-04
2.840142224158626e-05,1.0,0.5785275101661682,0.9362221956253052,1e-04
1.6515929019078612e-05,1.0,0.5786970853805542,0.9364444613456726,1e-04
2.419792872387916e-05,1.0,0.5791096687316895,0.9364444613456726,1e-04
2.3319184037973173e-05,1.0,0.5796366930007935,0.9364444613456726,1e-04
1.7289483366766945e-05,1.0,0.579860270023346,0.9366666674613953,1e-04
1.6754243915784173e-05,1.0,0.57987380027771,0.9366666674613953,1e-04
1.5001987776486203e-05,1.0,0.5802087187767029,0.9364444613456726,1e-04
1.9281325876363553e-05,1.0,0.5802214741706848,0.9364444613456726,1e-04
1.3944350030214991e-05,1.0,0.5806449055671692,0.9364444613456726,1e-04
1.4945928342058323e-05,1.0,0.5805022716522217,0.9364444613456726,1e-04
1.3895588381274138e-05,1.0,0.580165445804596,0.9364444613456726,1e-04
1.8354452549829148e-05,1.0,0.5796470046043396,0.9362221956253052,1e-04
1.4694169294671156e-05,1.0,0.5797785520553589,0.9362221956253052,1e-04
6.554288847837597e-05,1.0,0.573962926864624,0.9333333373069763,1e-04
2.0433000827324577e-05,1.0,0.5729870200157166,0.9328888654708862,1e-04
2.2409612938645296e-05,1.0,0.5734139084815979,0.9333333373069763,1e-04
1.4581505638489034e-05,1.0,0.5742676258087158,0.9337777495384216,1e-04
1.94713102246169e-05,1.0,0.5747513771057129,0.9342222213745117,1e-04
2.2080581402406096e-05,1.0,0.5753361582756042,0.9346666932106018,1e-04
1.6958203559624963e-05,1.0,0.5762169361114502,0.9351111054420471,1e-04
1.2382608474581502e-05,1.0,0.5770488381385803,0.9353333115577698,1e-04
1.5102841643965803e-05,1.0,0.5780122876167297,0.9359999895095825,1e-04
1.2506126950029284e-05,1.0,0.5787804126739502,0.9359999895095825,1e-04
1.3267262147564907e-05,1.0,0.5793230533599854,0.9359999895095825,1e-04
2.8879658202640712e-05,1.0,0.580245852470398,0.9359999895095825,1e-04
2.3167678591562435e-05,1.0,0.5807342529296875,0.9359999895095825,1e-04
3.2691350497771055e-05,1.0,0.5816543698310852,0.9357777833938599,1e-04
1.0235899026156403e-05,1.0,0.5821892023086548,0.9357777833938599,1e-04
1.572379915160127e-05,1.0,0.5829713940620422,0.9357777833938599,1e-04
1.6202104234253056e-05,1.0,0.5836149454116821,0.9357777833938599,1e-04
1.1556116987776477e-05,1.0,0.5842419862747192,0.9359999895095825,1e-04
1.3574558579421137e-05,1.0,0.5844526886940002,0.9357777833938599,1e-04
9.471253179071937e-06,1.0,0.5845869183540344,0.9357777833938599,1e-04
1.3242950444691814e-05,1.0,0.5847722291946411,0.9357777833938599,1e-04
5.570285065914504e-05,1.0,0.581234872341156,0.9357777833938599,1e-04
1.743504253681749e-05,1.0,0.579988420009613,0.9351111054420471,1e-04
1.7475304048275575e-05,1.0,0.5799127817153931,0.9355555772781372,1e-04
2.6514733690419234e-05,1.0,0.5801427960395813,0.9357777833938599,1e-04
1.6711783246137202e-05,1.0,0.5803275108337402,0.9355555772781372,1e-04
1.4558810107700992e-05,1.0,0.5808817148208618,0.9357777833938599,1e-04
8.271231308754068e-06,1.0,0.5814110636711121,0.9355555772781372,1e-04
1.4893787010805681e-05,1.0,0.5822343826293945,0.9359999895095825,1e-04
3.45437802025117e-05,1.0,0.5816951990127563,0.9357777833938599,1e-04
1.3604173545900267e-05,1.0,0.582140326499939,0.9362221956253052,1e-04
1.3030660738877486e-05,1.0,0.5825673937797546,0.9364444613456726,1e-04
1.4977325008658227e-05,1.0,0.5825895667076111,0.9362221956253052,1e-04
2.0028013750561513e-05,1.0,0.5821868777275085,0.9359999895095825,1e-04
1.0283053597959224e-05,1.0,0.5822107195854187,0.9359999895095825,1e-04
1.6253252397291362e-05,1.0,0.582853376865387,0.9357777833938599,1e-04
1.814883762563113e-05,1.0,0.5833593010902405,0.9357777833938599,1e-04
1.797605182218831e-05,1.0,0.5841588377952576,0.9357777833938599,1e-04
1.4499421922664624e-05,1.0,0.5845845937728882,0.9357777833938599,1e-04
2.012546065088827e-05,1.0,0.5844036340713501,0.9357777833938599,1e-04
1.5441513824043795e-05,1.0,0.5847029685974121,0.9357777833938599,1e-04
2.3507138394052163e-05,1.0,0.5852707028388977,0.9357777833938599,1e-04
1.1724949217750691e-05,1.0,0.5858114957809448,0.9359999895095825,1e-04
2.491009763616603e-05,1.0,0.5862792730331421,0.9359999895095825,1e-04
1.4215534065442625e-05,1.0,0.5865193605422974,0.9359999895095825,1e-04
3.354200816829689e-05,1.0,0.5867766737937927,0.9357777833938599,1e-04
1.6124944522744045e-05,1.0,0.5869593024253845,0.9355555772781372,1e-04
1.5660703866160475e-05,1.0,0.5875489115715027,0.9355555772781372,1e-04
1.2650028111238498e-05,1.0,0.5879326462745667,0.9357777833938599,1e-04
1.3038325050729327e-05,1.0,0.5873172283172607,0.9355555772781372,1e-04
8.5332321759779e-06,1.0,0.5871073007583618,0.9353333115577698,1e-04
1.2440760656318162e-05,1.0,0.5870350003242493,0.9359999895095825,1e-04
1.0116387784364633e-05,1.0,0.5871933102607727,0.9355555772781372,1e-04
1.1243620974710211e-05,1.0,0.587448239326477,0.9357777833938599,1e-04
1.0454335097165313e-05,1.0,0.5876322984695435,0.9357777833938599,1e-04
1.2901494301331695e-05,1.0,0.5870497226715088,0.9359999895095825,1e-04
6.4614655457262415e-06,1.0,0.5871463418006897,0.9357777833938599,1e-04
2.2032641936675645e-05,1.0,0.586968719959259,0.9357777833938599,1e-04
8.648128641652875e-06,1.0,0.5866515040397644,0.9357777833938599,1e-04
1.0013292012445163e-05,1.0,0.5868221521377563,0.9357777833938599,1e-04
1.683046320977155e-05,1.0,0.5863857269287109,0.9359999895095825,1e-04
1.1448229088273365e-05,1.0,0.5862739682197571,0.9359999895095825,1e-04
2.0837847841903567e-05,1.0,0.5862839221954346,0.9359999895095825,1e-04
1.0376562386227306e-05,1.0,0.5858622193336487,0.9359999895095825,1e-04
1.542378231533803e-05,1.0,0.5862259268760681,0.9359999895095825,1e-04
1.412854362570215e-05,1.0,0.58617103099823,0.9359999895095825,1e-04
1.1888600056408904e-05,1.0,0.5864214301109314,0.9359999895095825,1e-04
1.047670502885012e-05,1.0,0.5862049460411072,0.9359999895095825,1e-04
9.679376489657443e-06,1.0,0.5865843296051025,0.9359999895095825,1e-04
9.364663128508255e-06,1.0,0.5870941281318665,0.9357777833938599,1e-04
9.783412679098547e-06,1.0,0.5878427028656006,0.9355555772781372,1e-04
1.3642584235640243e-05,1.0,0.5886281728744507,0.9357777833938599,1e-04
8.34197908261558e-06,1.0,0.5893388986587524,0.9357777833938599,1e-04
1.2979430721316021e-05,1.0,0.5900096893310547,0.9357777833938599,1e-04
1.1870380149048287e-05,1.0,0.5904229879379272,0.9357777833938599,1e-04
1.3091384062136058e-05,1.0,0.5903106927871704,0.9357777833938599,1e-04
1.8542923498898745e-05,1.0,0.5888799428939819,0.9355555772781372,1e-04
1.4973137695051264e-05,1.0,0.5877981781959534,0.9362221956253052,1e-04
6.868278433103114e-05,1.0,0.5831989645957947,0.9346666932106018,1e-04
1.0449677574797533e-05,1.0,0.5807448625564575,0.9324444532394409,1e-04
9.678726200945675e-06,1.0,0.5806858539581299,0.9322222471237183,1e-04
1.3114404282532632e-05,1.0,0.5810214877128601,0.9322222471237183,1e-04
1.5181121852947399e-05,1.0,0.5816341638565063,0.9328888654708862,1e-04
1.301180509472033e-05,1.0,0.582694411277771,0.9340000152587891,1e-04
1.306774174736347e-05,1.0,0.5839858651161194,0.9351111054420471,1e-04
9.820308150665369e-06,1.0,0.5850619077682495,0.9351111054420471,1e-04
1.2588738172780722e-05,1.0,0.5867705941200256,0.9353333115577698,1e-04
1.3150719496479724e-05,1.0,0.5884404182434082,0.9351111054420471,1e-04
1.0866783668461721e-05,1.0,0.5896841287612915,0.9353333115577698,1e-04
1.6959096683422104e-05,1.0,0.590724766254425,0.9353333115577698,1e-04
1.1609461580519564e-05,1.0,0.5910510420799255,0.9355555772781372,1e-04
1.0694542652345262e-05,1.0,0.5911932587623596,0.9355555772781372,1e-04
1.4369859854923561e-05,1.0,0.5912875533103943,0.9355555772781372,1e-04
8.245595381595194e-06,1.0,0.5915577411651611,0.9355555772781372,1e-04
2.1267209376674145e-05,1.0,0.5914908051490784,0.9353333115577698,1e-04
7.642473065061495e-06,1.0,0.5916423797607422,0.9355555772781372,1e-04
9.87968178378651e-06,1.0,0.5921317934989929,0.9355555772781372,1e-04
9.066016900760587e-06,1.0,0.5924794673919678,0.9355555772781372,1e-04
1.1570909919100814e-05,1.0,0.5928583145141602,0.9353333115577698,1e-04
9.300795682065655e-06,1.0,0.5933120846748352,0.9353333115577698,1e-04
1.3723090887651779e-05,1.0,0.5940390229225159,0.9357777833938599,1e-04
2.4164935894077644e-05,1.0,0.5922409296035767,0.9348888993263245,1e-04
9.168609722109977e-06,1.0,0.5919685959815979,0.9348888993263245,1e-04
1.2757216609315947e-05,1.0,0.5920465588569641,0.9348888993263245,1e-04
1.1291765986243263e-05,1.0,0.5918291211128235,0.9348888993263245,1e-04
9.447109732718673e-06,1.0,0.5921878814697266,0.9348888993263245,1e-04
1.1604966857703403e-05,1.0,0.5923131704330444,0.9346666932106018,1e-04
1.2285380762477871e-05,1.0,0.5919131636619568,0.9348888993263245,1e-04
1.3118645256327e-05,1.0,0.5915122032165527,0.9348888993263245,1e-04
9.499299267190509e-06,1.0,0.5922267436981201,0.9348888993263245,1e-04
6.448829481087159e-06,1.0,0.5928547978401184,0.9346666932106018,1e-04
6.314809979812708e-06,1.0,0.5933200120925903,0.9353333115577698,1e-04
1.0766971172415651e-05,1.0,0.5937327146530151,0.9353333115577698,1e-04
8.335689017258119e-06,1.0,0.5942351818084717,0.9355555772781372,1e-04
7.0610940383630805e-06,1.0,0.5948113203048706,0.9353333115577698,1e-04
9.582067832525354e-06,1.0,0.5953276753425598,0.9357777833938599,1e-04
5.563651484408183e-06,1.0,0.5958294868469238,0.9357777833938599,1e-04
8.53332949191099e-06,1.0,0.595451831817627,0.9357777833938599,1e-04
8.555622116546147e-06,1.0,0.595097005367279,0.9355555772781372,1e-04
8.487548257107846e-06,1.0,0.5947291851043701,0.9355555772781372,1e-04
8.613059435447212e-06,1.0,0.5951380729675293,0.9353333115577698,1e-04
1.3752965969615616e-05,1.0,0.5952747464179993,0.9353333115577698,1e-04
1.0021381058322731e-05,1.0,0.594592809677124,0.9355555772781372,1e-04
1.3547776688938029e-05,1.0,0.5950121283531189,0.9357777833938599,1e-04
7.79335641709622e-06,1.0,0.5952445268630981,0.9357777833938599,1e-04
8.351894393854309e-06,1.0,0.5952208638191223,0.9355555772781372,1e-04
1.3739802852796856e-05,1.0,0.5956167578697205,0.9355555772781372,1e-04
6.912754997756565e-06,1.0,0.5956004858016968,0.9355555772781372,1e-04
8.477291885355953e-06,1.0,0.5952609777450562,0.9353333115577698,1e-04
1.3944551028544083e-05,1.0,0.5957357287406921,0.9357777833938599,1e-04
7.736503903288394e-06,1.0,0.5954717993736267,0.9357777833938599,1e-04
1.0162205398955848e-05,1.0,0.5955445170402527,0.9357777833938599,1e-04
1.0442429811519105e-05,1.0,0.5957335233688354,0.9357777833938599,1e-04
7.591892426717095e-06,1.0,0.5956969857215881,0.9357777833938599,1e-04
7.339180228882469e-06,1.0,0.5957715511322021,0.9357777833938599,1e-04
8.947037713369355e-06,1.0,0.595650851726532,0.9357777833938599,1e-04
5.5247101045097224e-06,1.0,0.5956456661224365,0.9357777833938599,1e-04
2.31481153605273e-05,1.0,0.5949734449386597,0.9355555772781372,1e-04
6.321763066807762e-06,1.0,0.5917917490005493,0.9348888993263245,1e-04
8.271465048892424e-06,1.0,0.5914442539215088,0.9344444274902344,1e-04
1.1410112165322062e-05,1.0,0.5921012759208679,0.9344444274902344,1e-04
1.5017621080914978e-05,1.0,0.5930619835853577,0.9348888993263245,1e-04
7.961743904161267e-06,1.0,0.5941208004951477,0.9355555772781372,1e-04
9.17601391847711e-06,1.0,0.5947014689445496,0.9355555772781372,1e-04
6.001043402648065e-06,1.0,0.5951974391937256,0.9355555772781372,1e-04
1.2486114428611472e-05,1.0,0.5961823463439941,0.9355555772781372,1e-04
6.739676791767124e-06,1.0,0.5969104766845703,0.9355555772781372,1e-04
6.85093709762441e-06,1.0,0.5974663496017456,0.9359999895095825,1e-04
4.991369223716902e-06,1.0,0.5975119471549988,0.9359999895095825,1e-04
1.6954756574705243e-05,1.0,0.5974017977714539,0.9357777833938599,1e-04
7.464125701517332e-06,1.0,0.596129298210144,0.9355555772781372,1e-04
5.476545538840583e-06,1.0,0.5960683822631836,0.9355555772781372,1e-04
1.029922077577794e-05,1.0,0.5961645245552063,0.9355555772781372,1e-04
4.1410407902731095e-06,1.0,0.5956111550331116,0.9355555772781372,1e-04
6.9020625232951716e-06,1.0,0.5955153703689575,0.9355555772781372,1e-04
8.484555110044312e-06,1.0,0.5955137610435486,0.9355555772781372,1e-04
1.055381289916113e-05,1.0,0.5957345366477966,0.9355555772781372,1e-04
8.746033927309327e-06,1.0,0.5962830781936646,0.9355555772781372,1e-04
5.366668574424693e-06,1.0,0.5965846180915833,0.9355555772781372,1e-04
1.2079982298018876e-05,1.0,0.5966448187828064,0.9353333115577698,1e-04
6.162733370729256e-06,1.0,0.5973040461540222,0.9357777833938599,1e-04
5.088700163469184e-06,1.0,0.5977544188499451,0.9362221956253052,1e-04
8.590178367740009e-06,1.0,0.5982706546783447,0.9362221956253052,1e-04
6.474959263869096e-06,1.0,0.5986278057098389,0.9362221956253052,1e-04
1.0303733688488137e-05,1.0,0.5975613594055176,0.9355555772781372,1e-04
8.324303053086624e-06,1.0,0.5973634719848633,0.9355555772781372,1e-04
9.581831363902893e-06,1.0,0.597581148147583,0.9355555772781372,1e-04
4.842670932703186e-06,1.0,0.5976842641830444,0.9355555772781372,1e-04
2.0685873096226715e-05,1.0,0.5983008742332458,0.9355555772781372,1e-04
4.359429112810176e-06,1.0,0.5978765487670898,0.9357777833938599,1e-04
7.284399089257931e-06,1.0,0.5977232456207275,0.9357777833938599,1e-04
5.6403796406812035e-06,1.0,0.5980358719825745,0.9357777833938599,1e-04
7.873448339523748e-06,1.0,0.598914623260498,0.9357777833938599,1e-04
1.2072231584170368e-05,1.0,0.5990292429924011,0.9357777833938599,1e-04
6.802869393141009e-06,1.0,0.5990282297134399,0.9355555772781372,1e-04
8.481143595417961e-06,1.0,0.5994345545768738,0.9359999895095825,1e-04
5.154494829184841e-06,1.0,0.5999524593353271,0.9357777833938599,1e-04
1.0742409358499572e-05,1.0,0.6000559329986572,0.9357777833938599,1e-04
8.755041562835686e-06,1.0,0.6007549166679382,0.9357777833938599,1e-04
7.490258212783374e-06,1.0,0.6008544564247131,0.9357777833938599,1e-04
1.1325586456223391e-05,1.0,0.600042462348938,0.9355555772781372,1e-04
4.849764991377015e-06,1.0,0.599698007106781,0.9355555772781372,1e-04
1.0364797162765171e-05,1.0,0.5996624827384949,0.9355555772781372,1e-04
7.884266779001337e-06,1.0,0.5985189080238342,0.9355555772781372,1e-04
4.323307621234562e-06,1.0,0.5982344150543213,0.9355555772781372,1e-04
6.335203124763211e-06,1.0,0.5980555415153503,0.9357777833938599,1e-04
1.4493176422547549e-05,1.0,0.598336935043335,0.9353333115577698,1e-04
